,,,,,,,,,,,
2019-09-04 23:50:55,,,,,,,,,,,
,,,,,,,,,,,
I,II,III,aVR,aVL,aVF,V1,V2,V3,V4,V5,V6
-8,-20,-19,10,3,-16,-334,-83,-179,-150,-111,-152
-25,-32,-8,28,-8,-16,-328,-89,-203,-162,-123,-164
-37,-38,-8,34,-20,-16,-328,-101,-215,-174,-129,-164
-49,-56,-8,52,-20,-28,-328,-107,-233,-186,-141,-176
-73,-62,4,64,-44,-22,-322,-113,-239,-186,-141,-182
-79,-50,22,64,-56,-11,-334,-119,-239,-186,-147,-182
-55,-38,10,46,-38,-11,-352,-131,-239,-198,-153,-188
-31,-38,-8,34,-14,-22,-358,-137,-239,-210,-159,-188
-31,-44,-8,34,-8,-28,-364,-137,-239,-210,-159,-194
-49,-62,-8,52,-20,-34,-358,-137,-245,-216,-171,-194
-61,-80,-13,70,-20,-46,-352,-131,-245,-216,-171,-194
-55,-86,-25,70,-14,-58,-352,-125,-233,-210,-165,-200
-67,-80,-8,70,-26,-46,-358,-119,-233,-192,-153,-206
-67,-62,-2,64,-38,-28,-358,-119,-233,-186,-147,-206
-37,-50,-8,40,-14,-28,-352,-125,-239,-198,-147,-206
-49,-56,-8,52,-20,-28,-346,-125,-239,-204,-153,-200
-85,-62,16,70,-56,-16,-346,-119,-245,-204,-159,-200
-67,-50,10,58,-44,-16,-364,-125,-245,-210,-159,-194
-49,-32,10,40,-32,-11,-370,-131,-245,-216,-159,-188
-49,-32,10,40,-32,-11,-364,-125,-233,-204,-153,-188
-55,-44,4,46,-32,-16,-352,-113,-233,-198,-147,-188
-55,-50,-2,52,-32,-22,-352,-113,-233,-204,-147,-194
-49,-44,-2,46,-26,-16,-352,-113,-233,-198,-147,-194
-49,-56,-8,52,-20,-28,-334,-95,-221,-186,-129,-188
-55,-50,-2,52,-32,-22,-322,-77,-197,-174,-123,-188
-67,-15,52,34,-62,13,-316,-59,-179,-162,-123,-194
-61,-15,46,34,-56,13,-322,-53,-167,-156,-123,-206
-43,-38,-2,40,-26,-16,-310,-47,-161,-144,-117,-200
-49,-32,10,40,-32,-11,-292,-17,-143,-132,-111,-188
-49,-15,34,28,-44,7,-280,0,-131,-126,-105,-194
-37,-20,10,28,-26,-11,-262,24,-125,-114,-87,-188
-31,-32,-8,28,-14,-16,-238,54,-89,-84,-63,-170
-25,-20,-2,22,-14,-11,-214,90,-53,-66,-45,-170
-13,-26,-8,16,-3,-16,-178,120,-29,-54,-39,-170
-25,-50,-19,34,-3,-34,-154,150,-23,-48,-33,-170
-25,-86,-55,52,3,-70,-136,174,-17,-54,-51,-194
-19,-158,-133,88,45,-148,-106,210,1,-54,-69,-218
-8,-224,-211,112,93,-220,-64,258,12,-42,-69,-230
-2,-278,-283,136,141,-280,-28,300,24,-48,-87,-254
4,-350,-361,166,183,-352,-11,348,24,-66,-117,-296
10,-428,-445,202,225,-436,37,408,42,-72,-135,-326
16,-500,-517,238,261,-502,79,474,66,-60,-141,-344
28,-548,-583,250,303,-562,115,516,84,-60,-159,-386
28,-626,-661,292,339,-640,163,576,102,-66,-171,-416
34,-740,-775,346,405,-754,217,636,132,-60,-183,-440
64,-818,-889,370,477,-850,235,666,120,-78,-213,-476
94,-872,-973,382,525,-922,253,684,108,-102,-237,-512
88,-956,-1045,430,561,-994,289,720,96,-126,-261,-554
-13,-1172,-1153,592,561,-1162,247,474,-125,-306,-411,-680
1090,-164,-1255,-463,1173,-712,1381,1398,822,695,620,381
154,-1064,-1225,454,687,-1144,421,984,210,-72,-255,-578
370,-782,-1159,202,759,-970,673,1728,768,335,50,-356
238,-944,-1189,346,711,-1060,613,1440,540,167,-63,-458
172,-1028,-1207,424,687,-1114,571,1290,432,83,-141,-518
250,-920,-1177,328,711,-1042,667,1572,642,251,-21,-452
268,-926,-1201,322,729,-1060,709,1662,708,311,21,-434
274,-956,-1231,334,747,-1090,709,1692,720,323,26,-422
340,-866,-1213,256,771,-1036,745,1872,858,431,104,-356
376,-764,-1147,190,753,-958,751,2004,978,533,194,-278
400,-692,-1093,142,741,-892,721,2087,1050,599,254,-230
442,-590,-1033,70,729,-808,709,2225,1158,689,326,-182
472,-512,-985,16,729,-748,721,2381,1296,809,422,-122
478,-476,-955,5,711,-712,721,2500,1428,929,512,-62
478,-428,-907,-19,687,-664,715,2626,1560,1019,578,-20
478,-374,-853,-43,663,-610,691,2752,1674,1109,638,9
484,-344,-835,-67,657,-586,637,2854,1782,1193,698,45
496,-296,-799,-97,645,-544,583,2962,1896,1277,758,75
496,-248,-745,-121,621,-496,559,3112,2022,1361,806,99
490,-230,-727,-127,603,-478,481,3214,2111,1433,842,123
520,-176,-703,-169,609,-436,361,3256,2171,1487,908,165
544,-62,-613,-235,573,-334,259,3256,2231,1571,980,243
568,27,-535,-295,549,-250,187,3244,2303,1655,1052,309
586,111,-475,-349,525,-178,127,3232,2381,1733,1130,375
604,177,-427,-391,513,-118,115,3226,2446,1799,1184,429
592,183,-409,-385,495,-106,127,3196,2464,1811,1184,435
562,183,-379,-373,471,-94,127,3142,2446,1769,1142,405
532,219,-313,-373,423,-40,121,3046,2405,1715,1100,381
460,195,-259,-325,357,-28,121,2824,2261,1607,1022,333
322,105,-217,-217,267,-46,103,2416,1944,1349,854,237
172,15,-151,-91,159,-58,61,1896,1494,995,602,87
40,-74,-121,10,75,-94,19,1314,966,587,314,-68
-73,-200,-121,136,15,-160,-46,738,462,215,68,-212
-175,-272,-97,226,-38,-190,-148,306,108,-25,-69,-272
-247,-314,-67,274,-86,-196,-250,0,-107,-162,-159,-302
-265,-380,-109,322,-80,-250,-340,-197,-281,-276,-237,-350
-271,-446,-169,358,-50,-304,-400,-299,-389,-354,-297,-380
-271,-440,-163,352,-56,-298,-418,-341,-437,-402,-321,-392
-277,-404,-121,340,-80,-262,-454,-365,-455,-420,-339,-392
-259,-380,-115,316,-74,-250,-490,-359,-449,-402,-321,-374
-235,-344,-109,286,-62,-232,-478,-323,-407,-360,-279,-344
-217,-284,-67,250,-74,-178,-436,-293,-389,-336,-249,-308
-199,-206,-8,202,-98,-106,-430,-287,-389,-330,-237,-296
-157,-134,16,142,-92,-52,-436,-269,-365,-312,-219,-272
-127,-92,28,106,-80,-28,-412,-245,-317,-276,-189,-236
-133,-56,70,94,-104,1,-388,-215,-299,-258,-165,-218
-115,-32,76,70,-98,13,-376,-203,-293,-252,-159,-212
-73,-26,40,46,-62,1,-370,-197,-275,-246,-153,-206
-67,-20,40,40,-56,1,-364,-191,-257,-234,-147,-206
-73,-15,64,34,-68,25,-364,-191,-263,-234,-153,-206
-73,9,88,22,-80,49,-376,-203,-281,-246,-171,-212
-85,9,100,28,-92,55,-376,-215,-281,-258,-165,-206
-91,3,100,34,-98,49,-370,-215,-281,-252,-159,-206
-91,3,100,34,-98,49,-370,-215,-281,-246,-159,-200
-91,33,130,22,-110,79,-370,-215,-293,-246,-165,-200
-85,51,142,10,-116,97,-382,-221,-299,-252,-159,-194
-67,45,118,10,-92,79,-388,-215,-293,-246,-159,-194
-55,21,82,10,-68,49,-388,-215,-287,-240,-165,-194
-55,15,76,10,-68,43,-388,-215,-287,-246,-171,-194
-61,3,70,22,-68,37,-382,-215,-281,-240,-171,-188
-73,3,82,28,-80,43,-382,-215,-281,-234,-165,-182
-73,15,94,22,-86,55,-382,-221,-281,-240,-165,-182
-73,15,94,22,-86,55,-376,-209,-281,-228,-147,-176
-79,15,100,22,-92,55,-370,-209,-281,-222,-141,-170
-79,33,118,16,-98,73,-388,-227,-287,-234,-153,-182
-79,45,130,10,-104,85,-412,-245,-293,-246,-159,-182
-97,33,136,22,-116,85,-412,-245,-287,-246,-165,-182
-103,33,142,28,-122,85,-406,-239,-287,-240,-159,-176
-79,39,124,10,-104,79,-412,-239,-281,-234,-147,-164
-55,33,94,10,-74,61,-424,-245,-281,-228,-141,-176
-61,33,100,10,-80,67,-424,-251,-299,-234,-147,-182
-85,39,130,16,-110,85,-412,-239,-299,-240,-147,-182
-85,45,136,10,-110,91,-418,-245,-293,-234,-147,-182
-85,51,142,10,-116,97,-424,-245,-293,-234,-147,-182
-91,51,148,10,-122,97,-418,-239,-287,-228,-141,-176
-73,45,124,10,-98,85,-418,-245,-287,-234,-141,-170
-55,57,118,5,-86,85,-430,-251,-293,-240,-147,-182
-61,51,118,10,-92,85,-436,-251,-287,-240,-147,-182
-73,57,136,10,-104,97,-436,-251,-275,-234,-135,-170
-79,69,154,10,-116,109,-430,-251,-275,-240,-135,-170
-79,75,160,10,-122,115,-436,-263,-299,-252,-141,-182
-73,87,166,-1,-122,127,-436,-269,-305,-246,-141,-176
-55,93,154,-13,-104,121,-436,-269,-305,-240,-129,-152
-49,93,148,-13,-98,121,-442,-275,-311,-252,-135,-158
-73,93,172,-1,-122,133,-442,-299,-329,-264,-159,-176
-79,99,184,-1,-134,139,-442,-299,-323,-258,-165,-176
-67,123,196,-19,-134,157,-448,-293,-311,-246,-159,-170
-67,117,190,-19,-128,151,-460,-293,-311,-246,-153,-170
-73,87,166,-1,-122,127,-454,-293,-299,-246,-135,-164
-67,99,172,-7,-122,133,-448,-287,-293,-234,-123,-152
-67,123,196,-19,-134,157,-460,-293,-311,-246,-123,-152
-73,111,190,-13,-134,151,-466,-305,-317,-252,-129,-152
-61,117,184,-19,-122,151,-466,-311,-317,-246,-123,-146
-49,141,196,-37,-122,169,-472,-311,-323,-240,-129,-140
-49,147,202,-43,-128,175,-472,-323,-323,-240,-129,-134
-67,141,214,-31,-140,175,-472,-317,-317,-228,-129,-128
-79,141,226,-25,-152,181,-478,-311,-305,-222,-123,-116
-79,147,232,-25,-158,187,-478,-317,-311,-234,-123,-122
-67,177,244,-49,-158,211,-484,-329,-317,-246,-129,-128
-43,195,238,-67,-146,217,-490,-341,-329,-246,-129,-128
-49,183,232,-61,-146,211,-502,-341,-329,-240,-117,-122
-67,189,256,-55,-164,223,-508,-353,-329,-234,-117,-128
-73,201,274,-55,-176,235,-508,-359,-323,-234,-117,-128
-79,207,286,-55,-188,241,-508,-365,-323,-228,-111,-122
-85,207,292,-55,-194,247,-508,-359,-317,-222,-111,-116
-73,225,304,-73,-194,265,-514,-365,-317,-222,-111,-104
-49,261,316,-103,-188,289,-538,-383,-323,-234,-117,-104
-49,273,328,-109,-194,301,-538,-395,-335,-240,-117,-98
-67,267,340,-97,-206,301,-532,-395,-335,-234,-99,-80
-61,273,340,-103,-206,307,-538,-395,-323,-216,-87,-74
-37,291,334,-121,-188,313,-556,-407,-329,-216,-81,-80
-49,291,346,-115,-200,319,-550,-419,-329,-210,-75,-68
-55,297,358,-115,-212,325,-550,-413,-317,-210,-69,-56
-49,321,376,-133,-218,349,-556,-425,-317,-204,-63,-44
-31,339,376,-151,-206,355,-568,-437,-329,-210,-63,-44
-25,339,370,-151,-200,355,-568,-443,-329,-210,-63,-38
-37,339,382,-145,-212,361,-568,-449,-323,-204,-57,-32
-37,363,406,-157,-224,385,-580,-443,-323,-198,-39,-14
-43,393,442,-169,-242,415,-586,-443,-311,-174,-21,-2
-43,411,460,-181,-248,433,-592,-443,-299,-156,-3,9
-19,417,442,-193,-236,427,-604,-443,-287,-150,3,9
-8,435,436,-217,-218,439,-610,-431,-269,-144,15,21
-8,465,466,-229,-236,469,-610,-425,-245,-126,26,33
-8,477,478,-235,-242,481,-622,-431,-245,-120,26,39
-8,489,496,-235,-248,493,-628,-431,-233,-114,32,45
-8,507,508,-247,-254,511,-622,-431,-227,-102,32,45
10,531,514,-271,-248,523,-622,-431,-233,-96,38,51
22,549,520,-283,-242,535,-622,-431,-233,-90,44,63
16,573,550,-295,-260,565,-622,-419,-221,-72,62,75
22,585,556,-301,-260,571,-628,-401,-203,-48,86,93
34,591,550,-313,-254,571,-640,-401,-191,-42,92,105
46,609,556,-325,-248,583,-640,-389,-173,-36,104,117
40,609,562,-325,-254,589,-628,-365,-143,-25,122,135
46,585,532,-313,-242,559,-610,-347,-113,5,140,153
52,573,514,-313,-230,547,-610,-335,-101,17,152,165
64,615,544,-337,-242,583,-616,-329,-95,17,152,153
70,669,592,-367,-254,631,-610,-311,-77,35,158,153
76,663,580,-367,-248,625,-592,-281,-59,59,182,177
82,627,538,-355,-230,583,-586,-257,-35,77,200,189
94,633,532,-361,-218,583,-574,-245,-11,89,212,195
106,663,550,-385,-224,607,-568,-221,6,101,218,201
112,657,538,-385,-212,601,-562,-203,12,113,218,201
136,651,508,-391,-188,583,-562,-197,12,113,224,189
142,651,502,-397,-182,577,-550,-173,30,119,218,189
130,639,502,-385,-188,571,-514,-131,60,137,230,195
136,615,478,-373,-170,547,-502,-107,66,143,236,195
136,615,478,-373,-170,547,-496,-89,66,149,236,189
130,609,478,-367,-170,541,-484,-77,78,161,242,183
130,591,460,-361,-164,523,-460,-41,102,173,254,189
148,585,436,-367,-140,511,-448,-17,108,173,248,183
160,585,424,-373,-128,505,-430,-12,108,173,242,165
148,543,394,-343,-122,475,-406,6,120,173,242,153
124,501,376,-313,-122,445,-382,18,126,173,236,135
124,507,382,-313,-128,451,-376,36,120,161,224,111
130,501,370,-313,-116,439,-352,66,132,161,218,105
130,465,328,-295,-98,397,-316,96,144,167,218,111
136,435,292,-283,-74,367,-298,102,138,149,200,105
124,417,286,-265,-80,355,-286,102,126,125,182,87
112,387,268,-247,-74,331,-274,108,108,113,158,69
112,363,244,-235,-62,307,-268,108,90,95,134,39
124,345,220,-229,-44,283,-262,102,72,77,116,15
106,327,220,-217,-50,271,-250,108,66,71,104,9
82,291,208,-187,-56,247,-226,108,60,59,92,-8
82,255,172,-169,-38,217,-208,102,54,41,86,-14
88,249,160,-169,-32,211,-208,90,36,23,68,-26
70,243,172,-157,-44,211,-208,72,18,-1,50,-38
46,213,160,-127,-50,187,-196,66,6,-13,38,-50
34,171,130,-103,-44,151,-190,66,1,-25,26,-56
22,147,118,-85,-44,133,-184,54,-17,-25,15,-74
34,135,94,-85,-26,115,-190,30,-41,-42,-15,-110
52,135,76,-91,-8,109,-196,12,-59,-60,-27,-128
40,129,82,-85,-14,109,-190,12,-59,-60,-27,-134
34,123,82,-79,-20,103,-190,6,-71,-72,-33,-146
28,93,58,-61,-8,79,-190,-12,-77,-84,-39,-152
22,57,28,-37,-3,43,-196,-12,-83,-102,-45,-152
10,39,22,-25,-3,31,-196,-12,-107,-120,-57,-164
-2,33,28,-13,-8,31,-196,-29,-125,-138,-75,-176
-2,15,10,-7,-3,13,-190,-41,-143,-150,-87,-182
-8,-3,-2,5,-3,1,-184,-35,-149,-144,-81,-182
-8,3,16,10,-14,7,-190,-41,-149,-144,-87,-182
-13,9,28,10,-20,19,-208,-59,-161,-156,-99,-194
-19,-9,16,10,-20,1,-214,-77,-167,-162,-111,-206
-25,-9,22,10,-26,7,-214,-83,-167,-162,-117,-212
-25,3,34,10,-32,19,-220,-89,-167,-162,-123,-218
-31,-15,16,16,-26,-5,-208,-83,-167,-156,-117,-212
-37,-32,-2,34,-20,-11,-202,-77,-173,-162,-117,-212
-19,-38,-13,28,-3,-28,-202,-83,-185,-168,-123,-212
-13,-32,-13,22,-3,-22,-208,-89,-191,-174,-123,-212
-19,-32,-8,22,-3,-22,-208,-89,-191,-180,-129,-212
-31,-50,-13,40,-8,-34,-196,-83,-185,-180,-129,-218
-37,-62,-19,46,-8,-40,-190,-89,-179,-174,-129,-218
-37,-32,-2,34,-20,-11,-208,-101,-191,-186,-135,-230
-25,-15,16,10,-20,1,-214,-107,-203,-198,-141,-230
-25,-15,16,10,-20,1,-190,-101,-197,-180,-129,-224
-13,-9,10,10,-14,1,-166,-89,-179,-162,-117,-206
-2,15,10,-7,-3,13,-154,-83,-167,-162,-105,-200
-8,39,52,-7,-32,43,-142,-71,-167,-156,-99,-194
-25,51,82,-7,-56,67,-136,-65,-155,-150,-93,-188
-8,63,64,-25,-32,67,-136,-59,-149,-150,-87,-188
22,39,10,-31,-3,25,-130,-47,-143,-150,-87,-182
16,21,-2,-19,3,13,-118,-41,-131,-138,-87,-170
-8,33,34,-13,-14,37,-112,-41,-125,-132,-81,-170
-8,45,52,-13,-26,49,-112,-47,-137,-138,-87,-170
-2,33,28,-13,-8,31,-106,-53,-137,-138,-87,-176
-8,39,40,-13,-20,43,-106,-59,-137,-138,-93,-176
-13,57,76,-13,-44,67,-106,-71,-143,-144,-99,-182
-19,51,76,-7,-50,61,-94,-65,-143,-144,-99,-182
-8,57,70,-19,-38,61,-82,-59,-131,-138,-87,-176
4,69,58,-37,-20,67,-82,-53,-119,-132,-81,-182
4,69,58,-37,-20,67,-82,-53,-113,-126,-75,-182
4,75,64,-37,-26,73,-70,-41,-107,-114,-69,-176
4,93,82,-49,-32,91,-64,-35,-107,-102,-63,-164
4,105,94,-55,-38,103,-70,-29,-101,-102,-63,-158
4,123,112,-61,-50,121,-70,-35,-107,-96,-69,-146
-2,129,124,-61,-56,127,-70,-29,-101,-90,-51,-134
16,129,106,-73,-38,121,-70,-29,-89,-78,-33,-128
40,135,88,-85,-20,115,-82,-29,-77,-78,-27,-122
34,159,118,-97,-38,139,-94,-35,-77,-72,-27,-122
22,165,136,-91,-50,151,-106,-35,-77,-66,-21,-116
34,177,136,-103,-44,157,-118,-29,-71,-60,-15,-116
58,183,118,-121,-26,151,-124,-17,-59,-54,-15,-104
70,183,106,-127,-14,145,-148,-29,-59,-48,-15,-98
64,195,124,-127,-26,163,-178,-41,-71,-48,-9,-92
70,201,124,-133,-20,163,-196,-53,-77,-48,-9,-86
70,201,124,-133,-20,163,-220,-65,-83,-48,-9,-92
52,189,130,-121,-32,163,-226,-77,-83,-54,-3,-92
46,165,112,-103,-26,139,-220,-71,-77,-48,3,-86
58,159,94,-109,-14,127,-232,-89,-95,-66,-15,-104
64,141,70,-103,-3,109,-250,-107,-113,-84,-33,-134
34,93,52,-61,-3,73,-250,-107,-119,-84,-39,-140
28,39,4,-31,3,25,-238,-101,-119,-84,-39,-134
16,9,-8,-13,9,1,-232,-101,-131,-90,-57,-140
-8,-9,-2,10,-3,-5,-238,-113,-143,-108,-69,-158
-8,-15,-2,10,-3,-11,-250,-131,-155,-126,-75,-170
-8,-9,-8,10,-3,-5,-256,-149,-167,-132,-81,-182
-8,-15,-8,10,-3,-11,-262,-161,-173,-138,-87,-188
-8,-15,-2,10,-3,-11,-262,-167,-185,-150,-99,-200
-13,-9,10,10,-14,1,-268,-173,-191,-156,-111,-200
-25,-15,16,10,-20,1,-262,-173,-191,-156,-111,-194
-31,-15,22,16,-26,1,-262,-167,-185,-162,-111,-194
-31,-15,10,22,-26,-11,-262,-173,-191,-162,-123,-206
-37,-32,-2,34,-20,-11,-262,-185,-203,-174,-135,-212
-55,-50,-2,52,-32,-22,-268,-203,-209,-180,-141,-218
-61,-74,-8,64,-26,-40,-262,-215,-209,-192,-153,-230
-61,-86,-19,70,-20,-52,-262,-215,-209,-186,-153,-230
-67,-80,-8,70,-26,-46,-268,-215,-209,-186,-153,-236
-73,-98,-19,82,-26,-58,-274,-227,-215,-192,-153,-230
-73,-116,-37,94,-14,-76,-274,-221,-215,-186,-135,-230
-73,-104,-25,88,-20,-64,-274,-209,-203,-168,-123,-218
-61,-86,-19,70,-20,-52,-274,-203,-203,-168,-123,-218
-55,-86,-25,70,-14,-58,-274,-203,-203,-174,-129,-224
-67,-80,-8,70,-26,-46,-274,-197,-209,-168,-123,-224
-67,-98,-25,82,-20,-64,-274,-197,-203,-174,-129,-224
-61,-104,-37,82,-8,-70,-268,-209,-209,-180,-135,-224
-67,-74,-8,70,-32,-40,-268,-209,-209,-186,-141,-224
-49,-56,-8,52,-20,-28,-262,-215,-203,-186,-147,-230
-43,-62,-13,52,-14,-40,-262,-215,-203,-186,-147,-230
-73,-62,4,64,-44,-22,-256,-215,-203,-186,-141,-230
-97,-62,28,76,-68,-11,-256,-209,-197,-180,-135,-218
-91,-68,16,76,-56,-22,-250,-203,-191,-174,-129,-212
-61,-68,-8,64,-26,-34,-256,-203,-191,-162,-129,-206
-55,-68,-8,58,-20,-40,-256,-197,-185,-156,-123,-206
-67,-74,-8,70,-32,-40,-250,-191,-173,-150,-123,-212
-67,-86,-13,76,-26,-52,-232,-173,-155,-138,-111,-206
-55,-68,-8,58,-20,-40,-220,-155,-137,-132,-105,-206
-61,-50,4,52,-38,-16,-226,-149,-137,-132,-105,-212
-55,-50,-2,52,-32,-22,-214,-137,-125,-126,-99,-218
-49,-80,-25,64,-8,-52,-184,-107,-107,-108,-87,-206
-49,-98,-43,70,-3,-70,-160,-77,-83,-90,-75,-200
-49,-86,-31,64,-8,-58,-154,-59,-71,-78,-63,-194
-49,-62,-8,52,-20,-34,-136,-29,-53,-66,-57,-200
-43,-74,-25,58,-8,-52,-106,-12,-29,-54,-51,-194
-37,-104,-61,70,3,-82,-88,12,-11,-48,-39,-188
-19,-116,-91,64,27,-106,-76,30,-5,-48,-45,-200
-19,-140,-115,76,39,-130,-46,54,6,-54,-57,-224
-25,-200,-169,112,63,-184,-11,102,18,-36,-51,-230
-25,-266,-241,148,99,-250,37,150,42,-25,-57,-248
-13,-332,-313,172,141,-322,73,192,60,-25,-81,-284
-8,-398,-385,202,183,-394,103,234,72,-30,-111,-326
-8,-464,-451,238,213,-460,133,282,90,-42,-147,-368
-8,-542,-529,274,249,-538,175,336,114,-48,-165,-398
-2,-632,-637,310,315,-634,217,402,126,-66,-183,-434
22,-716,-739,340,381,-730,253,462,120,-78,-201,-476
28,-806,-841,382,435,-820,277,480,102,-102,-225,-512
-43,-986,-943,514,441,-970,241,240,-95,-264,-363,-632
1000,-15,-1021,-487,1005,-514,1375,1020,750,671,620,405
-2,-1070,-1075,526,531,-1072,343,432,1,-216,-357,-650
298,-812,-1117,250,705,-964,571,1296,624,227,-27,-440
232,-962,-1195,358,711,-1072,553,1080,444,89,-153,-542
118,-1136,-1255,502,687,-1198,523,822,240,-60,-273,-644
172,-1094,-1267,460,717,-1180,595,1080,414,53,-195,-584
184,-1082,-1267,448,723,-1174,625,1182,468,95,-171,-572
160,-1118,-1279,478,717,-1198,613,1164,432,71,-189,-602
208,-1082,-1291,436,741,-1186,643,1308,528,149,-129,-572
262,-1040,-1309,382,783,-1174,667,1434,630,233,-51,-518
298,-1022,-1327,358,807,-1174,679,1518,714,311,9,-476
328,-944,-1273,298,795,-1108,697,1644,834,425,80,-410
352,-818,-1177,232,759,-994,697,1758,960,521,164,-344
370,-746,-1117,184,735,-928,667,1836,1044,611,242,-278
430,-686,-1117,124,765,-898,625,1938,1152,707,314,-230
484,-590,-1081,46,777,-832,583,2069,1290,827,410,-164
478,-506,-991,10,729,-748,547,2219,1434,941,500,-104
460,-470,-931,10,693,-700,535,2339,1548,1025,560,-62
436,-440,-877,10,651,-658,505,2422,1626,1091,620,-26
460,-404,-865,-19,657,-634,427,2458,1692,1157,674,9
502,-368,-877,-61,687,-622,343,2458,1710,1205,710,39
514,-332,-853,-85,681,-592,325,2434,1716,1217,716,33
478,-290,-775,-91,627,-532,295,2422,1740,1253,734,51
454,-224,-679,-109,561,-448,241,2405,1788,1307,776,105
436,-140,-577,-145,501,-358,211,2399,1854,1373,848,171
424,-68,-493,-175,459,-280,205,2399,1908,1427,890,219
436,-26,-469,-199,447,-250,175,2375,1950,1439,908,231
424,-3,-421,-211,423,-208,151,2309,1950,1445,920,243
400,27,-367,-217,381,-166,157,2213,1920,1433,920,249
346,75,-265,-211,303,-88,175,2105,1884,1403,902,249
256,87,-169,-175,213,-34,181,1926,1782,1313,842,231
136,27,-103,-79,117,-28,175,1608,1542,1133,728,171
-2,-56,-61,22,27,-58,163,1206,1206,851,530,75
-97,-134,-31,112,-32,-82,91,750,780,497,278,-56
-193,-206,-8,196,-92,-106,-23,276,336,143,26,-206
-259,-302,-37,280,-110,-172,-118,-77,30,-72,-123,-290
-271,-380,-103,322,-86,-244,-184,-263,-119,-186,-195,-332
-295,-392,-91,340,-104,-244,-214,-383,-233,-264,-237,-368
-319,-398,-73,358,-122,-238,-232,-449,-305,-306,-267,-380
-277,-398,-115,334,-80,-256,-256,-455,-335,-318,-273,-380
-229,-362,-133,292,-44,-250,-268,-449,-329,-306,-255,-362
-223,-302,-79,256,-68,-196,-268,-425,-299,-270,-219,-314
-205,-230,-19,214,-92,-124,-262,-395,-263,-240,-189,-272
-163,-152,4,154,-86,-70,-256,-383,-251,-234,-183,-254
-127,-104,16,112,-74,-40,-238,-365,-245,-228,-177,-242
-133,-80,46,106,-92,-11,-220,-353,-239,-228,-177,-236
-133,-62,64,94,-104,-5,-214,-353,-239,-234,-171,-236
-115,-74,34,94,-80,-16,-202,-353,-233,-234,-171,-242
-115,-92,16,100,-68,-34,-190,-347,-227,-222,-159,-230
-127,-80,40,100,-86,-16,-190,-341,-221,-204,-141,-230
-115,-56,52,82,-86,-11,-196,-353,-227,-204,-135,-230
-103,-62,34,82,-74,-11,-202,-359,-227,-192,-129,-230
-121,-74,40,94,-86,-11,-190,-347,-215,-180,-123,-212
-115,-56,52,82,-86,-11,-202,-353,-227,-192,-135,-212
-109,-26,76,64,-98,19,-208,-371,-233,-210,-147,-224
-115,-20,88,64,-104,25,-208,-371,-233,-210,-153,-230
-103,-38,58,70,-86,1,-202,-371,-233,-216,-153,-230
-103,-68,28,82,-68,-16,-196,-365,-227,-204,-147,-218
-109,-92,10,100,-62,-34,-184,-353,-221,-192,-135,-212
-115,-86,22,100,-74,-28,-196,-359,-227,-204,-141,-218
-109,-56,46,82,-80,-11,-202,-365,-233,-210,-153,-224
-109,-32,70,70,-92,13,-202,-365,-233,-216,-147,-218
-103,-38,58,70,-86,1,-202,-371,-233,-210,-141,-212
-109,-56,46,82,-80,-11,-208,-383,-239,-204,-135,-212
-115,-38,70,76,-98,7,-220,-395,-251,-216,-141,-218
-103,-15,88,52,-98,31,-232,-407,-263,-228,-159,-230
-109,-15,88,58,-104,31,-226,-401,-251,-222,-153,-224
-145,-38,100,88,-128,25,-208,-389,-239,-204,-135,-212
-139,-44,88,88,-116,13,-208,-383,-233,-198,-135,-206
-133,-44,82,88,-110,13,-202,-371,-227,-198,-129,-206
-121,-44,70,82,-98,7,-208,-371,-227,-204,-141,-206
-91,-32,52,58,-74,1,-214,-389,-233,-210,-147,-206
-85,-26,52,52,-74,7,-214,-389,-227,-192,-135,-194
-109,-38,64,70,-92,7,-214,-389,-227,-186,-129,-182
-121,-44,70,82,-98,7,-226,-401,-233,-198,-135,-176
-103,-15,94,52,-98,37,-238,-413,-239,-198,-141,-176
-85,9,100,28,-92,55,-244,-419,-239,-198,-135,-170
-91,-3,94,40,-92,43,-238,-413,-245,-204,-141,-170
-97,-9,94,46,-98,43,-238,-413,-245,-216,-147,-176
-97,-3,100,40,-98,49,-244,-407,-233,-204,-135,-170
-115,-15,100,58,-110,37,-238,-407,-233,-198,-129,-164
-121,-15,100,64,-116,37,-232,-407,-233,-204,-129,-158
-115,-15,94,64,-110,31,-232,-407,-227,-198,-123,-152
-109,-15,100,52,-104,43,-232,-407,-227,-186,-117,-152
-97,15,118,34,-110,67,-244,-419,-233,-186,-123,-158
-91,21,118,28,-104,67,-256,-425,-239,-192,-123,-164
-121,-3,124,52,-122,61,-256,-425,-233,-192,-117,-152
-133,3,142,58,-140,73,-256,-419,-233,-186,-105,-134
-97,21,124,28,-110,73,-256,-431,-239,-198,-111,-146
-67,15,88,16,-80,49,-256,-443,-245,-210,-123,-158
-85,9,100,28,-92,55,-244,-437,-239,-204,-117,-146
-109,33,148,28,-128,91,-244,-431,-233,-192,-111,-140
-109,51,166,22,-140,109,-262,-443,-239,-198,-111,-140
-97,45,148,16,-122,97,-262,-449,-239,-198,-111,-140
-97,57,160,10,-128,109,-262,-449,-239,-192,-117,-140
-97,75,178,10,-140,127,-268,-461,-251,-204,-123,-146
-109,51,166,22,-140,109,-268,-455,-239,-192,-111,-140
-103,39,148,22,-128,91,-262,-449,-233,-186,-99,-128
-97,51,154,16,-128,103,-262,-455,-233,-186,-93,-122
-109,51,166,22,-140,109,-256,-449,-233,-174,-81,-104
-103,69,178,10,-140,121,-262,-461,-233,-180,-81,-104
-85,87,178,5,-134,133,-268,-473,-239,-192,-93,-104
-97,93,196,10,-146,145,-262,-467,-233,-180,-81,-86
-97,99,202,5,-152,151,-262,-461,-233,-162,-69,-80
-97,105,208,5,-152,157,-274,-467,-233,-162,-69,-74
-109,111,226,5,-170,169,-268,-461,-227,-150,-57,-56
-109,135,244,-7,-182,193,-268,-473,-227,-150,-57,-44
-97,171,268,-31,-188,223,-280,-479,-227,-162,-63,-44
-91,177,268,-37,-182,223,-286,-485,-227,-162,-63,-44
-85,189,274,-43,-182,229,-286,-497,-227,-162,-57,-44
-85,201,286,-49,-188,241,-292,-497,-221,-156,-57,-44
-85,201,286,-49,-188,241,-280,-485,-203,-138,-39,-32
-91,207,298,-49,-200,247,-280,-485,-197,-120,-21,-20
-79,213,292,-61,-188,247,-286,-491,-203,-120,-15,-20
-67,225,298,-73,-188,259,-298,-497,-209,-120,-9,-14
-85,237,328,-73,-212,283,-292,-491,-197,-102,9,9
-103,249,358,-67,-236,301,-292,-485,-191,-96,15,15
-73,273,352,-97,-218,313,-304,-497,-191,-102,9,9
-43,297,346,-121,-200,319,-310,-491,-179,-102,15,21
-55,339,400,-139,-230,367,-310,-485,-155,-78,26,45
-49,363,418,-151,-236,391,-310,-479,-143,-66,32,51
-49,351,406,-145,-230,379,-310,-479,-137,-60,44,63
-49,363,418,-151,-236,391,-304,-467,-125,-48,56,75
-31,417,454,-187,-242,433,-310,-461,-119,-42,56,87
-13,441,460,-211,-242,451,-304,-443,-107,-25,74,105
-25,423,454,-193,-242,439,-292,-431,-89,-13,98,123
-19,423,448,-199,-236,433,-304,-425,-77,-1,110,141
-19,441,466,-205,-242,451,-310,-419,-65,5,110,159
-25,453,478,-211,-254,469,-316,-419,-59,11,116,177
-8,465,478,-223,-242,469,-322,-413,-53,17,122,177
10,471,460,-241,-224,469,-310,-383,-17,47,146,201
22,471,448,-247,-212,463,-286,-341,18,83,176,237
28,501,472,-265,-218,487,-280,-317,36,95,188,249
16,525,502,-271,-242,517,-280,-323,36,101,188,249
10,525,508,-265,-242,517,-280,-311,48,107,188,255
34,531,490,-283,-230,511,-268,-293,60,119,200,255
58,531,472,-295,-206,499,-256,-263,84,143,218,267
76,537,460,-307,-188,499,-250,-251,96,155,230,267
64,555,484,-307,-212,523,-262,-251,102,155,224,261
58,555,490,-307,-218,523,-256,-233,114,167,236,267
64,537,472,-301,-200,505,-244,-203,138,185,242,273
70,543,472,-307,-200,505,-232,-173,162,197,248,279
70,567,490,-319,-212,529,-232,-161,168,197,248,279
82,567,478,-325,-200,523,-232,-143,168,197,242,273
82,525,442,-301,-176,481,-208,-119,186,209,254,285
76,519,442,-295,-182,481,-190,-101,204,215,266,291
94,549,454,-319,-176,499,-190,-95,198,215,260,279
130,537,406,-331,-134,475,-184,-89,192,215,254,273
124,471,346,-295,-110,415,-154,-65,216,233,266,279
88,459,364,-271,-134,415,-136,-41,234,245,266,279
94,459,358,-271,-128,409,-130,-41,240,239,260,261
118,435,310,-271,-92,373,-118,-35,240,233,260,249
112,429,310,-265,-98,373,-112,-29,240,227,260,237
100,417,310,-253,-104,367,-106,-29,234,221,236,231
94,375,274,-229,-86,325,-88,-17,216,203,224,225
88,327,232,-211,-68,283,-70,-12,198,185,218,213
76,315,232,-199,-74,277,-58,-17,180,161,200,189
76,315,232,-199,-74,277,-52,-23,156,137,176,165
82,309,226,-199,-68,265,-46,-29,144,125,158,141
82,279,196,-181,-50,235,-40,-35,150,125,152,135
58,243,184,-151,-56,217,-23,-41,150,137,146,129
40,237,196,-139,-74,223,-23,-65,132,119,122,99
58,231,172,-145,-50,205,-23,-89,102,89,92,75
52,189,130,-121,-32,163,-17,-95,84,77,86,75
16,147,124,-79,-50,139,1,-89,78,71,92,81
-2,135,130,-67,-62,133,1,-101,48,35,62,57
10,117,100,-61,-38,109,-11,-131,12,-7,26,27
28,81,46,-55,-3,67,-11,-155,1,-25,21,9
22,63,34,-43,-3,49,-17,-161,-5,-25,15,4
-2,63,58,-31,-26,61,-17,-173,-11,-25,9,-2
-8,51,64,-13,-38,55,-17,-185,-17,-25,3,-14
-19,27,52,5,-38,37,-23,-203,-23,-30,-15,-26
-19,15,40,10,-32,25,-34,-227,-53,-60,-39,-44
-25,3,34,10,-32,19,-34,-245,-71,-78,-51,-56
-49,-15,28,28,-44,1,-23,-245,-77,-78,-45,-50
-61,-26,28,40,-50,-5,-23,-245,-89,-96,-51,-50
-43,-32,4,34,-26,-11,-34,-257,-119,-120,-75,-62
-43,-38,-2,40,-26,-16,-34,-269,-131,-138,-87,-74
-73,-44,22,58,-50,-11,-28,-281,-125,-144,-87,-80
-85,-56,22,70,-56,-11,-28,-287,-125,-144,-93,-86
-79,-62,10,70,-50,-22,-28,-299,-131,-144,-99,-98
-79,-62,10,70,-50,-22,-28,-305,-125,-138,-99,-92
-61,-62,-8,58,-32,-28,-23,-299,-125,-132,-99,-86
-49,-62,-8,52,-20,-34,-23,-299,-137,-138,-111,-92
-55,-68,-8,58,-20,-40,-34,-299,-143,-144,-111,-92
-49,-56,-8,52,-20,-28,-28,-293,-137,-138,-99,-80
-19,-3,22,10,-20,7,-11,-287,-131,-138,-93,-68
-19,33,58,-1,-38,43,13,-275,-125,-132,-87,-74
-31,3,40,10,-38,19,25,-257,-101,-114,-69,-56
-19,3,28,10,-26,13,43,-257,-89,-90,-57,-50
-19,33,58,-1,-38,43,43,-257,-95,-90,-57,-50
-37,45,88,5,-62,67,43,-263,-95,-96,-69,-50
-61,33,100,10,-80,67,49,-251,-83,-84,-57,-44
-55,15,76,10,-68,43,55,-245,-77,-78,-51,-38
-25,9,40,10,-32,25,49,-251,-83,-90,-63,-44
-13,3,22,10,-20,13,55,-251,-89,-90,-63,-44
-37,15,58,10,-50,37,67,-251,-89,-90,-57,-38
-49,39,94,10,-74,67,67,-251,-101,-96,-63,-44
-25,51,82,-7,-56,67,67,-251,-89,-84,-57,-44
-19,45,70,-7,-44,55,73,-251,-77,-78,-45,-32
-37,39,82,5,-62,61,79,-251,-77,-78,-45,-26
-37,33,76,10,-56,55,79,-257,-77,-78,-45,-26
-31,45,82,-1,-56,61,79,-257,-71,-78,-45,-32
-19,63,88,-13,-56,73,79,-251,-71,-72,-39,-32
-8,75,88,-25,-50,79,85,-239,-59,-60,-27,-14
-8,105,112,-43,-56,109,85,-239,-47,-48,-9,9
-8,147,148,-67,-74,151,79,-239,-35,-30,3,15
-8,165,166,-79,-80,169,73,-233,-23,-25,9,27
-2,171,166,-85,-80,169,67,-233,-23,-25,21,33
10,171,154,-91,-68,163,67,-227,-17,-19,21,39
28,171,136,-97,-50,157,67,-221,-5,-13,26,51
34,183,142,-109,-50,163,55,-221,-5,-13,26,51
22,177,148,-97,-56,163,31,-227,-11,-19,26,45
22,141,112,-79,-38,127,13,-227,-11,-19,26,45
28,135,100,-79,-32,121,1,-239,-23,-25,26,39
16,123,100,-67,-38,115,-23,-245,-35,-25,26,33
10,57,40,-31,-8,49,-58,-251,-47,-25,9,21
16,-3,-13,-7,15,-11,-82,-281,-71,-54,-15,9
28,9,-13,-19,21,-5,-94,-305,-89,-78,-33,-2
-2,27,22,-13,-8,25,-94,-311,-89,-78,-33,-8
-31,-9,28,10,-32,7,-94,-323,-101,-90,-51,-20
-31,-32,-8,28,-14,-16,-94,-347,-119,-108,-69,-38
-37,-38,-8,34,-20,-16,-94,-347,-119,-108,-69,-38
-61,-50,4,52,-38,-16,-94,-341,-119,-102,-69,-32
-61,-62,-8,58,-32,-28,-100,-359,-131,-120,-87,-38
-49,-68,-13,58,-14,-40,-106,-365,-149,-132,-99,-50
-61,-62,-8,58,-32,-28,-112,-371,-161,-138,-99,-56
-61,-68,-8,64,-26,-34,-124,-371,-167,-144,-105,-56
-73,-86,-8,76,-32,-46,-124,-377,-167,-144,-99,-62
-103,-110,-8,106,-50,-58,-118,-389,-173,-156,-111,-74
-115,-110,-2,112,-62,-52,-130,-407,-191,-180,-129,-86
-115,-110,-2,112,-62,-52,-136,-425,-203,-192,-141,-92
-127,-140,-8,130,-56,-76,-124,-425,-203,-192,-141,-86
-121,-152,-25,136,-44,-88,-124,-419,-203,-186,-147,-86
-121,-152,-25,136,-44,-88,-124,-419,-203,-186,-153,-80
-127,-164,-31,142,-44,-100,-130,-413,-197,-186,-147,-68
-121,-152,-25,136,-44,-88,-136,-419,-203,-186,-147,-68
-109,-134,-19,118,-44,-76,-148,-425,-209,-192,-153,-80
-109,-146,-31,124,-38,-88,-148,-419,-203,-192,-147,-74
-103,-146,-37,124,-32,-94,-142,-407,-197,-186,-141,-62
-103,-128,-19,112,-38,-76,-142,-407,-197,-168,-129,-50
-115,-122,-8,118,-56,-64,-142,-407,-191,-168,-129,-44
-103,-134,-25,118,-38,-82,-136,-401,-191,-162,-123,-44
-91,-134,-37,112,-26,-88,-130,-389,-179,-150,-123,-38
-115,-128,-8,118,-50,-70,-124,-383,-167,-138,-123,-32
-127,-122,-2,124,-68,-58,-136,-377,-167,-150,-129,-32
-109,-134,-19,118,-44,-76,-142,-383,-173,-156,-129,-32
-103,-146,-37,124,-32,-94,-142,-383,-167,-162,-129,-38
-109,-134,-19,118,-44,-76,-142,-377,-155,-156,-123,-38
-115,-134,-13,124,-50,-76,-136,-371,-149,-156,-117,-32
-115,-140,-19,124,-44,-82,-130,-371,-149,-156,-123,-38
-115,-122,-8,118,-56,-64,-130,-371,-149,-150,-123,-38
-115,-122,-8,118,-56,-64,-124,-347,-137,-138,-111,-38
-121,-140,-13,130,-50,-76,-106,-323,-119,-120,-99,-26
-115,-134,-13,124,-50,-76,-88,-293,-101,-102,-93,-20
-91,-116,-19,100,-32,-70,-70,-269,-83,-84,-87,-8
-73,-110,-31,88,-20,-70,-52,-251,-59,-78,-87,-2
-85,-110,-19,94,-32,-64,-46,-245,-53,-72,-81,-14
-109,-110,-8,106,-56,-52,-28,-221,-35,-60,-75,-8
-109,-122,-8,112,-50,-64,-11,-185,-5,-42,-63,-2
-85,-146,-55,112,-14,-100,7,-161,6,-36,-51,-8
-67,-152,-79,106,-3,-118,13,-155,6,-42,-57,-26
-73,-182,-103,124,3,-142,31,-131,12,-42,-75,-50
-67,-224,-151,142,33,-190,73,-83,36,-36,-87,-74
-61,-266,-205,166,63,-238,109,-29,54,-30,-93,-104
-73,-344,-265,208,87,-304,139,0,54,-30,-117,-140
-79,-470,-385,268,147,-430,181,54,60,-42,-153,-176
-67,-572,-499,316,213,-538,229,114,84,-48,-171,-212
-43,-626,-577,334,255,-604,271,168,90,-66,-195,-236
-19,-680,-655,346,309,-670,295,198,78,-96,-237,-290
-8,-770,-763,388,375,-766,319,228,72,-126,-273,-344
-13,-848,-829,430,399,-838,349,264,84,-132,-291,-380
-8,-914,-913,454,453,-910,367,306,84,-138,-309,-404
16,-986,-1003,478,507,-988,385,330,78,-156,-339,-446
28,-1052,-1087,502,555,-1066,427,378,78,-168,-357,-476
34,-1136,-1177,544,603,-1156,469,450,96,-162,-369,-506
46,-1208,-1255,574,651,-1228,517,528,120,-150,-387,-530
52,-1232,-1291,586,669,-1258,565,624,156,-132,-387,-536
70,-1244,-1321,580,693,-1282,619,726,204,-96,-369,-530
82,-1244,-1333,574,705,-1288,679,828,258,-60,-339,-530
40,-1286,-1333,616,687,-1306,709,768,210,-108,-381,-566
1096,-242,-1339,-427,1215,-784,1873,1554,1110,863,650,507
22,-1292,-1321,628,669,-1306,757,726,186,-138,-405,-584
388,-884,-1273,244,825,-1078,1009,1812,978,443,26,-272
382,-836,-1225,226,795,-1024,1087,1896,1050,509,92,-230
226,-962,-1189,364,705,-1072,1051,1548,810,365,-9,-290
274,-896,-1177,304,723,-1030,1099,1770,978,491,86,-218
328,-818,-1153,244,735,-982,1129,1968,1104,593,170,-164
292,-788,-1087,244,687,-940,1111,1956,1104,605,176,-164
268,-728,-997,226,633,-862,1147,2123,1224,695,242,-122
232,-680,-919,220,573,-796,1201,2321,1356,779,314,-86
190,-644,-835,226,507,-742,1213,2416,1428,821,338,-68
232,-560,-793,160,507,-676,1195,2524,1512,887,380,-38
268,-512,-787,118,525,-652,1177,2680,1632,965,434,-8
250,-524,-781,130,513,-652,1165,2806,1716,1025,470,4
232,-512,-745,136,483,-628,1147,2932,1824,1115,524,33
256,-452,-715,88,483,-580,1075,3076,1956,1223,614,111
316,-344,-667,10,483,-502,985,3172,2052,1331,704,183
352,-266,-625,-37,483,-448,931,3286,2159,1421,776,249
364,-236,-601,-61,483,-418,895,3400,2267,1505,842,291
376,-212,-589,-79,483,-400,805,3418,2315,1547,890,321
400,-200,-601,-97,495,-400,733,3388,2315,1559,896,333
418,-164,-583,-121,495,-370,715,3340,2321,1559,902,345
400,-98,-499,-145,447,-298,685,3196,2249,1511,872,333
346,-98,-451,-121,393,-268,619,2878,2022,1343,752,273
274,-194,-475,-37,369,-328,601,2476,1716,1103,584,195
166,-302,-475,64,315,-388,601,2034,1356,815,386,87
16,-392,-415,184,213,-400,547,1488,948,503,176,-8
-103,-452,-343,274,111,-400,463,942,564,245,26,-86
-217,-500,-277,352,21,-388,391,462,246,29,-105,-146
-319,-542,-223,430,-50,-382,313,0,-53,-174,-237,-212
-415,-602,-187,502,-116,-394,229,-341,-281,-330,-339,-260
-469,-638,-169,550,-152,-406,163,-521,-389,-408,-387,-284
-451,-602,-151,520,-152,-376,85,-611,-431,-426,-399,-278
-421,-560,-139,490,-140,-352,7,-647,-455,-426,-393,-254
-397,-548,-151,472,-122,-352,-46,-671,-455,-420,-381,-236
-373,-536,-163,454,-104,-352,-100,-713,-479,-432,-393,-230
-373,-506,-133,442,-122,-322,-136,-743,-497,-438,-399,-230
-361,-482,-115,418,-122,-298,-142,-737,-479,-420,-363,-212
-355,-458,-97,406,-128,-274,-154,-713,-443,-390,-333,-188
-355,-434,-73,394,-140,-250,-172,-695,-419,-378,-327,-176
-331,-368,-31,346,-152,-202,-196,-677,-407,-360,-309,-164
-271,-296,-19,280,-128,-160,-220,-647,-365,-318,-273,-134
-235,-224,4,226,-122,-106,-226,-623,-329,-288,-249,-92
-211,-158,46,184,-134,-52,-226,-605,-305,-264,-225,-56
-175,-104,64,136,-122,-16,-208,-593,-293,-246,-201,-38
-139,-80,52,106,-98,-11,-184,-581,-281,-228,-183,-20
-133,-74,52,100,-98,-11,-160,-563,-263,-210,-165,-2
-145,-74,64,106,-110,-11,-142,-551,-257,-210,-153,4
-139,-62,70,100,-110,-5,-142,-557,-263,-222,-165,-8
-145,-44,94,94,-122,19,-154,-563,-269,-222,-171,-14
-145,-50,88,94,-122,13,-160,-551,-251,-210,-165,-2
-145,-38,100,88,-128,25,-160,-551,-251,-210,-159,9
-145,-38,100,88,-128,25,-166,-545,-245,-204,-159,9
-127,-38,82,82,-110,13,-172,-539,-245,-204,-165,9
-97,-15,76,52,-92,25,-190,-551,-257,-216,-177,-2
-115,-15,106,58,-110,43,-184,-563,-257,-204,-165,4
-133,-32,94,82,-116,25,-172,-551,-239,-186,-147,9
-127,-56,64,88,-98,-5,-172,-545,-233,-186,-147,21
-133,-32,94,82,-116,25,-178,-551,-245,-192,-153,15
-145,-9,142,70,-146,67,-184,-557,-251,-198,-159,9
-145,-9,142,70,-146,67,-184,-563,-245,-198,-153,9
-151,-20,124,82,-140,43,-172,-551,-239,-186,-141,27
-157,-26,124,88,-146,43,-172,-551,-233,-180,-135,33
-151,-15,142,76,-146,61,-184,-563,-245,-192,-141,27
-133,-15,112,70,-128,43,-190,-575,-251,-198,-141,21
-127,-26,94,76,-116,25,-196,-581,-251,-198,-141,27
-133,-26,100,76,-122,31,-196,-581,-251,-192,-141,27
-139,-26,106,82,-128,31,-208,-587,-251,-186,-135,33
-139,-20,112,76,-128,37,-208,-587,-251,-186,-135,33
-133,-15,124,64,-128,55,-208,-581,-251,-186,-129,45
-139,-3,142,64,-140,67,-214,-575,-251,-186,-123,51
-157,-3,160,70,-158,79,-220,-581,-251,-180,-129,45
-139,15,160,52,-152,85,-226,-593,-263,-192,-135,45
-121,27,154,40,-140,91,-232,-599,-263,-192,-135,45
-121,33,160,34,-140,97,-238,-605,-269,-192,-147,39
-115,45,166,28,-140,103,-244,-611,-269,-192,-147,39
-127,39,172,34,-152,103,-238,-617,-269,-186,-141,45
-127,21,154,46,-140,85,-232,-605,-257,-180,-129,51
-127,21,154,46,-140,85,-250,-611,-263,-186,-135,45
-127,27,160,40,-146,91,-262,-623,-275,-192,-135,45
-127,27,160,40,-146,91,-256,-629,-269,-186,-129,57
-121,39,166,34,-146,103,-262,-635,-263,-180,-123,69
-127,39,172,34,-152,103,-262,-647,-269,-174,-123,75
-151,27,184,52,-170,103,-262,-641,-275,-168,-111,81
-145,51,202,40,-176,127,-262,-647,-269,-168,-99,87
-121,87,214,10,-170,151,-268,-665,-281,-180,-105,87
-109,111,226,5,-170,169,-274,-671,-287,-186,-111,75
-103,111,220,5,-164,163,-268,-671,-287,-192,-111,75
-103,105,214,5,-158,157,-274,-677,-287,-192,-105,81
-115,105,226,10,-170,163,-286,-677,-287,-180,-99,93
-121,111,232,10,-182,175,-292,-683,-281,-168,-99,99
-115,105,226,10,-170,163,-304,-689,-281,-174,-99,99
-115,123,238,5,-182,181,-310,-707,-293,-180,-99,99
-121,141,262,-1,-194,205,-316,-713,-305,-174,-99,105
-133,135,268,5,-206,205,-316,-719,-299,-168,-93,117
-121,129,250,5,-188,193,-322,-725,-299,-168,-93,123
-115,165,280,-19,-200,223,-334,-743,-305,-180,-99,123
-109,195,304,-37,-212,247,-334,-743,-305,-168,-93,135
-97,201,298,-43,-200,247,-340,-755,-305,-156,-81,153
-103,207,310,-43,-212,253,-352,-773,-311,-162,-75,153
-115,237,358,-55,-242,295,-370,-779,-311,-162,-69,165
-121,255,382,-61,-248,319,-370,-779,-305,-144,-51,177
-109,249,364,-67,-242,307,-376,-791,-299,-138,-45,183
-91,243,340,-73,-218,289,-382,-803,-311,-138,-51,183
-85,255,346,-79,-218,301,-388,-809,-311,-144,-51,183
-85,279,370,-91,-230,325,-394,-821,-311,-138,-51,189
-85,303,394,-103,-242,349,-406,-827,-311,-132,-39,207
-91,315,412,-109,-248,361,-412,-833,-305,-126,-21,231
-91,333,430,-115,-260,379,-424,-845,-311,-132,-15,243
-73,369,448,-145,-260,409,-442,-875,-323,-138,-21,243
-49,393,448,-169,-248,421,-454,-893,-317,-126,-9,249
-43,387,436,-169,-242,409,-460,-887,-299,-102,15,261
-55,375,436,-157,-242,403,-466,-887,-293,-78,26,285
-61,381,448,-157,-254,415,-472,-899,-287,-72,26,297
-49,417,472,-181,-260,445,-484,-905,-287,-66,26,297
-31,447,478,-205,-254,463,-502,-917,-293,-72,26,297
-37,471,508,-211,-272,487,-508,-929,-287,-72,26,303
-49,471,526,-211,-290,499,-508,-923,-275,-48,50,333
-43,471,520,-211,-284,493,-514,-929,-263,-36,74,351
-8,471,484,-229,-248,475,-526,-941,-263,-36,80,357
4,495,484,-247,-242,493,-532,-947,-257,-25,92,363
-8,525,538,-253,-272,529,-538,-941,-239,-19,110,387
-25,561,592,-259,-308,577,-544,-941,-233,-1,116,393
-8,573,574,-283,-284,577,-550,-941,-233,11,122,387
22,573,544,-295,-254,559,-550,-929,-221,23,128,399
28,579,544,-301,-254,565,-556,-917,-209,29,140,405
22,585,556,-301,-260,571,-562,-917,-197,35,140,411
22,597,568,-307,-266,583,-562,-905,-191,47,152,417
34,603,562,-319,-260,583,-556,-881,-167,65,170,435
46,603,550,-325,-248,577,-550,-875,-149,77,200,453
40,591,544,-313,-248,571,-550,-863,-131,89,218,465
46,585,532,-313,-242,559,-544,-851,-119,95,224,465
82,615,526,-349,-224,571,-544,-833,-113,101,218,459
106,633,520,-367,-206,577,-538,-821,-101,101,212,441
94,621,520,-355,-212,571,-532,-809,-83,113,212,435
82,621,532,-349,-224,577,-520,-785,-65,131,224,441
100,603,496,-349,-200,553,-514,-761,-59,143,230,435
124,585,460,-355,-164,523,-508,-737,-47,143,230,435
118,591,472,-355,-176,529,-490,-701,-29,149,230,435
112,591,478,-349,-182,535,-484,-671,-17,155,230,435
112,573,460,-343,-170,517,-466,-647,-5,155,230,423
112,555,442,-331,-164,499,-442,-623,6,167,224,417
118,555,436,-337,-158,493,-418,-587,18,179,224,417
130,543,412,-337,-140,475,-406,-545,42,191,224,411
136,495,358,-313,-110,433,-376,-497,60,191,230,399
136,471,334,-301,-98,409,-346,-473,72,197,224,387
136,471,328,-301,-92,403,-328,-443,78,197,212,369
136,447,304,-289,-80,379,-310,-413,78,191,200,351
136,429,286,-277,-74,361,-298,-389,78,173,176,327
130,417,280,-271,-74,349,-280,-383,72,149,152,309
112,393,274,-247,-80,337,-256,-359,72,137,140,297
94,363,262,-229,-80,313,-220,-323,84,131,134,297
94,345,244,-223,-74,295,-196,-299,84,119,116,273
88,315,226,-205,-62,271,-166,-281,78,119,116,267
64,297,232,-181,-80,265,-136,-257,78,119,116,261
64,285,220,-175,-74,253,-130,-257,54,95,86,231
58,249,190,-157,-62,223,-118,-251,42,77,62,201
40,219,172,-127,-62,199,-100,-239,36,71,56,195
58,207,142,-133,-38,175,-100,-251,18,41,32,171
58,189,124,-121,-26,157,-88,-251,6,23,21,153
22,171,142,-97,-56,157,-70,-233,6,11,15,153
16,153,130,-85,-50,145,-52,-233,6,-1,3,147
10,129,112,-67,-44,121,-46,-233,-5,-13,-9,135
-8,123,124,-55,-62,127,-34,-239,-17,-25,-21,111
-8,111,112,-49,-56,115,-23,-239,-23,-25,-27,99
-8,75,82,-31,-44,79,-11,-239,-29,-25,-33,93
-8,33,46,-7,-26,37,-11,-251,-47,-30,-45,75
-8,3,16,10,-14,7,1,-245,-47,-36,-51,75
-13,15,34,5,-26,25,13,-245,-53,-48,-57,69
-13,27,46,-1,-32,37,1,-251,-71,-66,-75,51
-25,27,58,5,-44,43,-17,-263,-83,-84,-87,39
-43,15,64,10,-56,37,-5,-257,-83,-84,-87,45
-43,-15,28,22,-38,1,1,-257,-83,-84,-87,57
-43,-20,16,28,-32,-11,7,-263,-83,-84,-81,57
-61,-15,46,34,-56,13,19,-263,-89,-90,-81,57
-61,-15,52,28,-56,19,25,-269,-95,-102,-93,45
-31,-3,34,10,-32,13,25,-275,-101,-102,-99,39
-13,15,34,5,-26,25,31,-263,-89,-90,-99,51
-19,15,40,10,-32,25,55,-251,-89,-84,-93,57
-13,21,40,5,-26,31,73,-251,-89,-84,-93,45
-19,51,76,-7,-50,61,79,-245,-83,-78,-87,51
-31,69,106,-13,-68,85,97,-227,-71,-66,-81,69
-8,63,76,-19,-44,67,115,-215,-59,-66,-75,75
4,75,64,-37,-26,73,133,-209,-47,-60,-69,81
4,111,100,-55,-44,109,151,-203,-35,-54,-57,93
4,129,118,-67,-50,127,145,-209,-41,-54,-57,93
4,93,82,-49,-32,91,151,-209,-41,-48,-51,93
-8,69,70,-31,-32,73,163,-197,-29,-36,-45,99
-8,87,100,-31,-56,91,169,-191,-29,-36,-39,99
-8,117,130,-49,-68,121,163,-185,-35,-36,-39,99
-8,129,136,-55,-68,133,157,-191,-35,-36,-39,99
-2,159,154,-79,-74,157,157,-191,-35,-30,-39,99
4,195,184,-97,-86,193,157,-185,-17,-25,-33,111
16,189,166,-103,-68,181,157,-173,-5,-25,-21,123
4,189,178,-97,-80,187,163,-161,6,-13,-3,135
4,207,196,-103,-92,205,163,-155,6,-7,9,147
46,207,154,-127,-50,181,151,-155,6,-1,9,147
64,207,136,-133,-32,175,151,-155,6,5,15,153
52,207,148,-127,-44,181,145,-143,12,11,26,159
58,189,124,-121,-26,157,133,-149,6,5,15,147
58,177,112,-115,-20,145,121,-161,1,-7,-3,135
34,153,112,-91,-32,133,121,-161,1,-13,-3,135
16,129,106,-73,-38,121,109,-149,6,-7,-9,135
22,135,106,-79,-38,121,85,-161,-11,-25,-21,117
28,147,112,-85,-38,133,67,-179,-23,-25,-27,111
4,105,94,-55,-38,103,67,-179,-17,-25,-21,117
-2,57,52,-25,-20,55,49,-197,-35,-36,-33,105
-2,33,28,-13,-8,31,13,-245,-77,-78,-75,69
-8,21,28,-1,-14,25,-23,-281,-113,-96,-93,57
-8,-9,-2,10,-3,-5,-28,-299,-125,-102,-93,63
-13,-20,-8,16,-3,-11,-34,-311,-137,-108,-105,51
-43,-26,10,34,-32,-11,-28,-317,-143,-120,-123,39
-67,-38,22,52,-50,-11,-23,-311,-143,-120,-117,39
-67,-26,34,46,-56,-5,-34,-329,-149,-132,-129,27
-67,-26,34,46,-56,-5,-40,-335,-161,-144,-141,15
-91,-74,10,82,-56,-28,-28,-329,-155,-144,-141,15
-115,-122,-8,118,-56,-64,-28,-335,-161,-144,-141,15
-121,-122,-8,118,-62,-58,-40,-353,-179,-156,-147,9
-121,-110,4,112,-68,-46,-46,-365,-185,-168,-153,9
-91,-110,-13,100,-38,-64,-58,-383,-203,-174,-159,-2
-73,-116,-37,94,-14,-76,-64,-389,-209,-186,-165,-8
-103,-122,-13,112,-44,-70,-52,-377,-197,-174,-159,4
-121,-98,16,106,-74,-34,-52,-383,-209,-180,-165,-2
-97,-80,10,88,-56,-28,-70,-401,-227,-198,-183,-8
-97,-122,-19,106,-38,-70,-58,-389,-209,-180,-165,4
-121,-152,-25,136,-44,-88,-40,-371,-191,-162,-141,9
-115,-146,-25,130,-44,-88,-52,-383,-197,-174,-153,9
-115,-140,-19,124,-44,-82,-58,-383,-203,-180,-159,9
-121,-128,-8,124,-56,-64,-58,-377,-197,-174,-153,9
-115,-110,-2,112,-62,-52,-70,-371,-191,-168,-153,9
-103,-104,-8,100,-50,-52,-70,-383,-197,-174,-159,9
-103,-98,-2,100,-56,-46,-76,-383,-197,-168,-159,9
-115,-92,16,100,-68,-34,-70,-377,-191,-162,-159,9
-127,-80,40,100,-86,-16,-52,-371,-179,-162,-147,15
-115,-74,34,94,-80,-16,-52,-365,-173,-162,-147,15
-109,-74,28,88,-74,-16,-46,-359,-173,-156,-153,9
-97,-80,10,88,-56,-28,-34,-347,-161,-150,-141,9
-85,-86,-8,82,-44,-40,-23,-323,-149,-132,-123,15
-97,-98,-8,94,-50,-46,-23,-305,-125,-108,-111,27
-115,-104,4,106,-62,-46,-23,-287,-113,-96,-99,33
-103,-110,-8,106,-50,-58,-17,-275,-107,-96,-105,27
-85,-98,-8,88,-38,-52,-5,-251,-89,-78,-99,27
-73,-74,-8,70,-38,-34,13,-227,-59,-60,-87,39
-79,-74,-2,76,-44,-34,31,-197,-35,-48,-69,51
-79,-98,-13,88,-32,-58,49,-161,-17,-30,-57,57
-73,-104,-25,88,-20,-64,67,-143,-5,-30,-57,51
-67,-98,-25,82,-20,-64,85,-131,-5,-30,-63,39
-67,-116,-43,88,-8,-82,109,-101,6,-25,-57,33
-73,-152,-73,112,-3,-112,139,-65,12,-25,-57,15
-67,-182,-109,124,9,-148,169,-23,24,-25,-69,-8
-55,-224,-163,136,45,-196,205,12,42,-25,-93,-44
-49,-302,-247,178,93,-274,235,66,60,-25,-111,-80
-37,-422,-379,232,165,-400,277,126,72,-25,-141,-128
-37,-536,-493,286,225,-514,319,180,84,-42,-171,-170
-31,-644,-607,334,279,-628,361,234,108,-54,-201,-212
-8,-728,-721,364,351,-724,397,282,114,-84,-237,-260
4,-782,-793,382,399,-784,427,318,102,-120,-279,-308
16,-848,-871,412,441,-856,445,336,84,-138,-309,-350
34,-908,-949,430,483,-928,451,360,54,-168,-339,-386
58,-962,-1021,448,537,-988,469,390,42,-186,-363,-428
58,-1046,-1111,490,579,-1078,517,456,60,-186,-381,-458
34,-1124,-1165,538,597,-1144,571,522,84,-174,-393,-482
46,-1160,-1213,550,627,-1186,601,594,102,-168,-411,-518
82,-1178,-1261,538,669,-1222,643,684,144,-156,-405,-524
100,-1178,-1279,532,687,-1228,691,786,204,-126,-387,-518
112,-1184,-1297,526,705,-1234,751,888,264,-96,-369,-506
136,-1184,-1321,514,729,-1246,823,1008,330,-42,-333,-488
172,-1160,-1333,490,747,-1240,889,1146,408,11,-285,-464
220,-1124,-1345,448,777,-1228,949,1266,492,83,-225,-434
232,-1058,-1297,406,759,-1180,1027,1416,600,185,-153,-380
244,-986,-1231,364,735,-1108,1087,1548,726,293,-63,-320
274,-920,-1201,316,729,-1054,1129,1680,822,389,9,-266
286,-878,-1171,286,729,-1018,1147,1728,858,425,32,-236
166,-974,-1141,400,651,-1054,1123,1428,648,263,-75,-314
1288,195,-1093,-739,1191,-448,2340,2530,1788,1415,1070,849
370,-626,-997,124,681,-808,1351,2422,1344,743,278,-62
490,-404,-901,-37,693,-652,1537,3106,1806,1067,518,105
280,-554,-841,130,555,-700,1531,2746,1530,875,368,4
226,-590,-817,178,513,-706,1537,2752,1530,875,368,-8
268,-500,-775,112,519,-640,1579,3100,1752,1031,476,39
226,-506,-739,136,477,-622,1573,3160,1776,1037,452,9
220,-494,-715,130,465,-598,1531,3244,1818,1073,470,9
268,-410,-685,64,477,-544,1501,3478,2010,1229,596,111
280,-362,-649,34,465,-502,1447,3634,2147,1331,692,189
298,-308,-613,10,453,-460,1393,3742,2231,1385,728,219
364,-254,-619,-49,483,-436,1345,3892,2339,1451,764,249
412,-212,-625,-97,513,-418,1345,4006,2423,1517,818,285
418,-182,-601,-115,501,-388,1357,4090,2470,1559,848,309
424,-128,-553,-145,483,-340,1345,4132,2506,1577,854,309
424,-116,-541,-151,483,-328,1285,4036,2434,1523,812,291
370,-164,-535,-97,453,-346,1219,3790,2249,1397,740,255
286,-248,-535,-13,411,-388,1189,3448,1992,1187,602,201
208,-308,-517,46,357,-412,1087,2998,1656,911,416,93
148,-350,-499,94,321,-424,925,2446,1278,647,242,9
64,-410,-481,166,267,-442,787,1908,936,437,116,-32
-49,-470,-415,256,177,-442,709,1368,606,221,3,-74
-145,-494,-343,316,93,-418,637,816,270,-1,-141,-140
-217,-500,-283,358,27,-394,595,366,6,-168,-249,-194
-301,-536,-235,418,-32,-388,577,12,-179,-276,-309,-212
-397,-572,-175,484,-110,-376,541,-257,-335,-360,-351,-218
-451,-602,-151,520,-152,-376,475,-461,-437,-414,-387,-224
-463,-602,-139,526,-164,-370,421,-539,-461,-426,-387,-218
-451,-566,-115,502,-170,-340,379,-551,-461,-426,-381,-218
-445,-542,-97,496,-176,-322,331,-569,-467,-438,-387,-218
-439,-548,-109,496,-164,-328,283,-611,-479,-450,-393,-218
-433,-536,-103,484,-164,-322,229,-629,-479,-462,-399,-218
-415,-500,-85,460,-164,-292,187,-629,-479,-456,-393,-206
-403,-464,-55,430,-176,-256,139,-635,-467,-438,-375,-176
-391,-434,-37,412,-176,-238,79,-647,-461,-414,-357,-146
-355,-380,-19,364,-170,-202,37,-659,-449,-390,-327,-122
-301,-314,-8,304,-146,-166,7,-647,-419,-348,-291,-86
-253,-272,-13,262,-122,-148,-23,-629,-383,-312,-261,-56
-235,-230,-2,232,-122,-112,-40,-623,-371,-294,-243,-38
-223,-182,34,202,-134,-70,-40,-611,-341,-276,-213,-20
-211,-152,52,178,-134,-46,-28,-581,-299,-252,-183,4
-199,-116,76,154,-140,-16,-34,-557,-281,-240,-177,9
-187,-86,94,136,-146,-5,-28,-539,-281,-246,-183,9
-169,-80,82,124,-128,-5,-23,-533,-281,-246,-171,9
-145,-68,70,106,-110,-5,-23,-527,-269,-222,-159,15
-139,-44,88,88,-116,13,-23,-527,-263,-210,-153,39
-127,-32,88,76,-110,19,-23,-521,-257,-198,-147,57
-115,-32,76,70,-98,13,-28,-527,-251,-192,-135,69
-121,-15,106,64,-116,43,-40,-533,-251,-192,-129,69
-121,-3,124,52,-122,61,-40,-539,-263,-204,-135,57
-121,-15,112,58,-116,49,-40,-533,-257,-210,-135,57
-139,-15,124,70,-134,49,-40,-533,-257,-210,-135,57
-145,-15,136,70,-140,61,-40,-533,-257,-204,-135,57
-139,-15,124,70,-134,49,-40,-545,-263,-210,-135,51
-127,-15,112,64,-122,43,-46,-545,-263,-204,-135,57
-127,-15,106,70,-122,37,-46,-551,-257,-198,-135,63
-121,-15,100,64,-116,37,-46,-563,-257,-204,-135,63
-121,-15,106,64,-116,43,-52,-575,-263,-204,-129,69
-121,-9,118,58,-122,55,-58,-581,-269,-198,-135,75
-109,3,118,46,-116,61,-70,-587,-269,-210,-135,69
-109,15,130,40,-122,73,-70,-581,-275,-204,-123,75
-121,9,136,46,-128,73,-82,-587,-275,-204,-117,75
-121,-9,118,58,-122,55,-94,-593,-281,-210,-123,69
-121,-20,94,70,-110,31,-88,-593,-281,-210,-117,75
-127,-15,106,70,-122,37,-82,-593,-281,-204,-117,81
-121,21,148,40,-134,85,-94,-605,-287,-210,-129,81
-109,57,172,16,-140,115,-106,-623,-299,-210,-135,75
-103,45,154,22,-128,97,-106,-623,-293,-204,-135,81
-103,21,130,34,-116,73,-100,-623,-281,-198,-117,93
-109,27,142,34,-128,85,-106,-629,-287,-198,-117,93
-115,27,148,34,-134,85,-118,-635,-299,-204,-123,87
-121,21,148,40,-134,85,-118,-635,-293,-192,-117,87
-121,39,166,34,-146,103,-118,-641,-287,-192,-111,93
-115,57,178,22,-146,115,-136,-653,-299,-210,-123,87
-115,51,172,22,-146,109,-142,-659,-299,-204,-117,93
-121,63,190,22,-158,127,-142,-659,-305,-198,-111,105
-109,99,214,10,-164,157,-148,-683,-317,-216,-123,99
-109,99,214,10,-164,157,-160,-695,-323,-216,-123,105
-121,69,196,16,-158,133,-166,-701,-323,-210,-111,117
-121,75,202,16,-164,139,-166,-707,-323,-198,-105,123
-109,99,214,10,-164,157,-160,-713,-311,-192,-93,135
-103,99,208,10,-158,151,-160,-713,-305,-186,-81,147
-103,93,202,10,-152,145,-172,-725,-311,-192,-81,147
-103,105,214,5,-158,157,-184,-731,-323,-198,-87,153
-109,129,238,-1,-176,187,-196,-743,-329,-204,-87,153
-115,141,256,-7,-188,199,-196,-755,-329,-204,-87,153
-115,141,256,-7,-188,199,-202,-761,-329,-204,-93,153
-115,141,256,-7,-188,199,-208,-767,-329,-204,-87,165
-103,153,256,-19,-182,205,-208,-785,-341,-204,-81,171
-91,183,274,-37,-188,229,-232,-803,-353,-210,-81,177
-91,195,286,-43,-194,235,-238,-815,-359,-204,-69,183
-109,195,304,-37,-212,247,-244,-821,-353,-180,-51,201
-115,213,328,-43,-224,265,-250,-845,-353,-186,-51,207
-103,237,346,-61,-230,289,-268,-875,-371,-204,-63,201
-85,243,334,-73,-212,289,-274,-893,-371,-204,-57,201
-79,255,340,-85,-212,295,-280,-899,-365,-192,-45,213
-79,297,382,-103,-236,337,-292,-917,-377,-198,-57,219
-79,327,412,-121,-242,367,-304,-929,-383,-204,-51,231
-73,315,394,-115,-236,355,-310,-935,-377,-192,-33,249
-73,303,382,-109,-230,343,-322,-959,-383,-186,-21,261
-73,333,412,-127,-242,373,-334,-977,-389,-186,-15,267
-73,339,418,-127,-242,379,-346,-983,-371,-162,3,291
-79,333,418,-121,-248,373,-346,-989,-359,-132,26,309
-79,375,460,-145,-266,415,-358,-1001,-365,-126,26,315
-67,423,490,-175,-278,457,-376,-1025,-383,-138,26,315
-49,441,490,-193,-272,469,-400,-1055,-395,-144,21,315
-55,447,502,-193,-278,475,-412,-1061,-395,-138,26,327
-67,447,514,-187,-290,475,-412,-1073,-383,-126,38,339
-37,447,484,-199,-260,469,-430,-1103,-389,-132,38,345
-19,459,478,-217,-248,469,-454,-1115,-389,-126,44,357
-13,465,478,-223,-248,475,-454,-1121,-371,-102,74,381
-8,483,484,-235,-242,487,-460,-1133,-365,-84,92,399
-8,507,514,-247,-260,511,-478,-1145,-371,-78,98,411
-19,513,538,-241,-278,523,-490,-1157,-365,-66,104,417
-8,513,526,-247,-266,517,-496,-1157,-371,-60,110,423
-8,525,526,-259,-260,529,-508,-1169,-371,-54,110,423
-8,543,544,-265,-272,547,-508,-1175,-365,-48,116,435
-8,519,526,-253,-266,523,-508,-1169,-353,-36,134,453
-8,507,508,-247,-254,511,-502,-1163,-335,-25,152,465
34,573,532,-301,-242,553,-514,-1169,-329,-19,158,465
52,621,562,-337,-248,595,-520,-1175,-317,-13,164,465
34,609,568,-319,-260,589,-526,-1175,-299,-7,170,471
46,597,544,-319,-242,571,-532,-1169,-293,-1,188,477
82,585,496,-331,-206,541,-532,-1157,-287,11,194,483
76,579,496,-325,-212,541,-532,-1145,-275,17,200,483
64,585,514,-325,-224,553,-526,-1127,-269,23,200,483
82,609,520,-343,-218,565,-520,-1115,-269,17,188,471
94,633,532,-361,-218,583,-526,-1109,-281,17,176,459
76,609,526,-343,-224,571,-514,-1085,-263,23,176,459
70,555,478,-313,-206,517,-496,-1061,-239,47,200,477
94,537,442,-313,-170,487,-484,-1043,-227,59,212,477
118,561,442,-337,-158,499,-484,-1019,-209,65,206,465
112,543,430,-325,-158,487,-478,-989,-185,71,212,453
100,513,412,-307,-152,469,-454,-959,-167,77,212,441
118,507,388,-313,-134,451,-442,-923,-149,83,212,441
136,507,370,-319,-116,445,-412,-887,-143,83,206,435
136,489,352,-313,-104,427,-382,-845,-137,83,200,429
112,477,364,-295,-122,427,-358,-797,-119,83,188,417
118,471,346,-289,-110,409,-340,-749,-107,89,182,405
124,459,328,-289,-98,397,-316,-713,-95,83,182,393
118,429,304,-271,-92,367,-292,-677,-77,89,182,381
124,393,262,-253,-68,331,-268,-641,-65,83,170,357
124,375,244,-247,-56,313,-244,-599,-59,77,152,339
106,363,250,-229,-68,307,-208,-563,-47,83,146,327
100,357,250,-229,-74,307,-184,-527,-35,77,140,321
94,333,232,-217,-68,283,-154,-497,-41,71,122,297
94,303,208,-199,-50,253,-130,-467,-41,53,98,267
88,279,190,-187,-44,235,-100,-437,-35,35,86,255
82,267,184,-175,-44,229,-76,-407,-29,23,68,249
76,243,166,-163,-38,211,-58,-383,-29,11,50,231
70,225,154,-151,-38,193,-46,-371,-29,-1,38,213
64,213,142,-139,-32,181,-23,-359,-35,-7,38,207
52,177,118,-115,-26,151,-11,-341,-35,-7,32,195
34,153,112,-91,-32,133,13,-317,-35,-7,26,183
34,153,112,-91,-32,133,37,-299,-41,-13,26,165
40,153,106,-97,-26,133,55,-287,-53,-25,15,147
22,141,112,-79,-38,127,73,-275,-65,-36,-9,135
-2,93,88,-43,-38,91,103,-263,-71,-48,-21,129
-8,45,58,-13,-32,49,121,-251,-77,-60,-27,129
-13,33,52,-1,-32,43,127,-251,-83,-78,-45,111
-8,39,52,-7,-32,43,121,-257,-95,-90,-57,93
-8,45,52,-13,-26,49,121,-263,-101,-96,-63,87
-8,51,58,-19,-32,55,127,-269,-113,-96,-63,81
-19,21,46,5,-32,31,133,-269,-119,-96,-63,81
-37,-20,10,28,-26,-11,145,-263,-119,-96,-69,69
-37,-15,28,16,-32,7,151,-263,-125,-108,-87,57
-13,39,58,-7,-38,49,145,-275,-149,-138,-117,33
-25,33,64,5,-44,49,151,-281,-161,-156,-135,21
-37,-3,40,10,-38,19,169,-275,-161,-168,-129,21
-37,-15,22,22,-32,1,175,-269,-167,-174,-129,27
-49,-26,16,34,-38,-11,175,-263,-161,-156,-123,39
-49,-38,4,40,-32,-11,175,-263,-155,-138,-111,45
-49,-32,10,40,-32,-11,175,-275,-161,-144,-117,39
-49,-44,-2,46,-26,-16,175,-275,-167,-138,-123,39
-61,-68,-8,64,-26,-34,181,-269,-161,-138,-117,45
-61,-86,-19,70,-20,-52,175,-275,-161,-150,-123,33
-55,-74,-13,64,-20,-46,163,-281,-173,-162,-135,15
-61,-68,-8,64,-26,-34,163,-281,-173,-162,-141,9
-73,-62,4,64,-44,-22,169,-281,-173,-168,-135,9
-79,-68,4,70,-44,-28,175,-281,-173,-168,-135,9
-55,-74,-13,64,-20,-46,169,-281,-185,-168,-141,9
-43,-80,-31,58,-3,-58,169,-281,-191,-180,-147,9
-49,-74,-19,58,-14,-46,181,-281,-191,-174,-141,9
-49,-62,-8,52,-20,-34,181,-287,-185,-156,-129,21
-49,-56,-8,52,-20,-28,181,-281,-173,-144,-117,27
-61,-44,10,52,-38,-11,187,-275,-167,-144,-117,33
-49,-32,10,40,-32,-11,199,-263,-155,-144,-117,39
-31,-15,16,16,-26,-5,217,-245,-137,-132,-105,51
-37,3,46,10,-44,25,253,-215,-113,-108,-87,69
-31,21,58,10,-44,37,277,-209,-107,-102,-75,75
10,69,52,-37,-14,61,277,-221,-119,-108,-69,69
22,105,76,-61,-20,91,271,-221,-119,-96,-63,75
-8,99,106,-43,-56,103,283,-209,-101,-78,-51,87
-19,87,112,-25,-68,97,295,-203,-95,-84,-51,93
-8,93,100,-37,-50,97,295,-197,-89,-78,-51,93
4,99,88,-49,-38,97,295,-191,-83,-66,-45,99
-8,105,106,-49,-50,109,313,-179,-71,-54,-33,117
-13,105,124,-37,-68,115,331,-167,-71,-54,-33,123
-8,111,112,-49,-56,115,331,-173,-71,-66,-39,111
16,123,100,-67,-38,115,325,-185,-77,-78,-45,105
10,135,118,-73,-50,127,325,-185,-77,-78,-45,105
-2,135,130,-67,-62,133,337,-173,-65,-66,-33,111
-2,141,136,-67,-62,139,343,-167,-47,-48,-21,129
4,183,172,-91,-80,181,343,-161,-35,-25,3,159
22,231,208,-127,-86,223,337,-143,-17,-7,26,177
34,231,196,-133,-74,217,343,-113,1,11,32,189
46,225,172,-133,-56,199,361,-95,6,23,44,207
58,249,190,-157,-62,223,367,-83,6,35,56,225
52,291,232,-175,-86,265,349,-83,18,47,68,231
64,297,232,-181,-80,265,349,-89,18,41,68,231
88,231,142,-163,-20,193,343,-95,6,29,62,225
106,183,70,-145,9,127,319,-113,1,5,32,201
106,189,76,-145,9,133,295,-119,-5,-7,26,183
82,183,94,-133,-3,139,289,-119,1,-7,26,177
70,141,64,-103,-3,103,259,-137,-5,-13,26,171
58,141,76,-97,-3,109,223,-155,-29,-25,21,165
58,153,88,-103,-8,121,205,-161,-41,-25,15,159
70,135,58,-103,-3,97,181,-179,-47,-25,3,147
64,111,40,-85,3,79,151,-197,-71,-36,-9,123
40,81,34,-61,-3,61,139,-215,-101,-54,-21,111
28,45,10,-37,3,31,139,-245,-119,-72,-33,111
22,27,-2,-25,3,13,139,-251,-131,-84,-45,105
4,27,16,-13,-3,25,139,-269,-137,-96,-51,99
-8,21,22,-7,-8,25,139,-281,-149,-102,-57,99
-8,9,16,5,-8,13,133,-281,-149,-102,-63,99
-19,3,28,10,-26,13,115,-287,-155,-114,-81,81
-49,3,58,16,-56,31,97,-299,-179,-138,-111,51
-61,-32,22,46,-44,-11,109,-299,-179,-144,-111,45
-55,-86,-25,70,-14,-58,115,-287,-173,-132,-105,45
-61,-92,-25,76,-14,-58,109,-305,-191,-156,-129,15
-73,-74,-8,70,-38,-34,103,-329,-203,-174,-147,9
-67,-68,-8,64,-32,-34,103,-335,-203,-174,-147,9
-61,-80,-13,70,-20,-46,103,-341,-203,-174,-135,9
-79,-98,-13,88,-32,-58,103,-347,-209,-180,-141,4
-97,-92,-2,94,-50,-40,97,-353,-209,-180,-141,9
-85,-86,-8,82,-44,-40,85,-347,-215,-186,-141,9
-85,-104,-13,94,-32,-58,91,-341,-215,-180,-141,15
-85,-92,-8,88,-38,-46,97,-329,-209,-180,-141,15
-73,-68,-2,70,-38,-28,85,-335,-209,-180,-141,9
-67,-68,-8,64,-32,-34,85,-335,-215,-174,-147,9
-73,-86,-8,76,-32,-46,91,-329,-203,-168,-135,15
-97,-92,-2,94,-50,-40,91,-323,-197,-162,-129,21
-97,-92,-2,94,-50,-40,97,-323,-197,-162,-123,27
-79,-74,-2,76,-44,-34,109,-323,-191,-150,-105,39
-73,-56,10,64,-44,-16,109,-323,-191,-138,-99,45
-91,-68,16,76,-56,-22,103,-323,-197,-144,-105,39
-97,-92,-2,94,-50,-40,91,-329,-209,-156,-123,21
-85,-92,-8,88,-38,-46,91,-317,-203,-156,-129,9
-85,-92,-8,88,-38,-46,115,-287,-173,-138,-111,15
-91,-74,10,82,-56,-28,127,-275,-161,-126,-105,21
-79,-44,28,58,-56,-11,121,-281,-167,-138,-123,9
-49,-44,-2,46,-26,-16,109,-287,-173,-144,-129,4
-49,-62,-8,52,-20,-34,133,-269,-155,-126,-111,9
-73,-68,-2,70,-38,-28,163,-251,-137,-108,-93,21
-73,-62,4,64,-44,-22,175,-239,-125,-108,-93,21
-49,-62,-8,52,-20,-34,187,-203,-107,-90,-81,39
-43,-74,-25,58,-8,-52,217,-149,-77,-66,-63,57
-61,-68,-8,64,-26,-34,235,-113,-53,-48,-57,57
-61,-74,-8,64,-26,-40,235,-101,-47,-48,-51,45
-43,-122,-73,82,3,-100,247,-83,-35,-42,-51,45
-37,-176,-133,106,39,-154,277,-47,-17,-30,-51,33
-31,-200,-163,112,57,-184,307,-17,-5,-25,-63,9
-25,-230,-199,124,75,-214,331,6,6,-25,-75,-20
-19,-278,-253,148,111,-268,361,54,12,-36,-99,-62
-19,-356,-331,190,147,-346,397,108,36,-48,-129,-104
-8,-434,-421,220,201,-430,451,174,60,-48,-141,-134
-2,-500,-499,244,243,-496,481,228,72,-54,-159,-164
22,-572,-601,268,309,-586,511,270,72,-78,-189,-212
40,-674,-721,310,375,-694,541,318,72,-96,-213,-248
46,-746,-799,346,423,-772,565,360,72,-108,-225,-284
46,-806,-859,376,453,-832,589,396,66,-120,-249,-320
64,-866,-937,394,495,-898,613,414,54,-132,-279,-344
100,-944,-1045,418,567,-988,637,456,60,-132,-291,-374
124,-1010,-1141,442,627,-1072,679,522,78,-126,-309,-410
118,-1058,-1183,466,645,-1120,733,612,102,-120,-321,-440
112,-1100,-1219,490,663,-1156,799,714,132,-108,-315,-452
124,-1130,-1255,496,687,-1192,847,816,180,-90,-303,-452
148,-1136,-1285,490,717,-1210,901,912,240,-66,-291,-452
160,-1142,-1303,490,729,-1222,985,1050,342,-13,-249,-422
184,-1118,-1303,466,735,-1210,1057,1182,438,59,-201,-392
130,-1196,-1327,526,729,-1258,1057,972,288,-36,-285,-464
1216,-104,-1327,-553,1269,-718,2232,1836,1236,977,758,609
250,-974,-1225,352,735,-1096,1195,1452,636,233,-87,-338
526,-572,-1105,16,813,-838,1399,2381,1320,767,314,-38
436,-608,-1045,82,735,-826,1381,2123,1140,659,254,-86
352,-686,-1039,160,693,-862,1351,1914,984,551,176,-134
418,-590,-1009,82,711,-796,1423,2243,1236,737,326,-20
382,-554,-943,82,657,-742,1471,2399,1362,815,392,15
316,-578,-901,124,603,-742,1507,2422,1386,815,386,9
304,-542,-853,112,573,-700,1561,2602,1506,893,428,27
316,-494,-811,82,561,-652,1567,2740,1614,965,482,57
322,-476,-799,70,555,-634,1525,2836,1662,1019,512,75
322,-458,-781,58,549,-616,1495,2974,1746,1079,536,81
316,-410,-733,40,519,-568,1489,3124,1848,1157,578,93
322,-326,-655,10,483,-490,1441,3244,1956,1235,644,147
352,-254,-607,-43,477,-430,1387,3376,2087,1349,740,231
400,-194,-595,-97,489,-394,1315,3502,2207,1451,824,303
430,-134,-565,-145,489,-346,1231,3604,2321,1541,896,345
430,-104,-535,-157,483,-316,1183,3688,2428,1619,944,375
454,-92,-547,-175,495,-316,1135,3742,2494,1667,974,399
502,-68,-577,-217,537,-322,1081,3754,2530,1691,998,411
514,-26,-547,-235,525,-286,1015,3682,2494,1679,986,405
478,-15,-499,-229,483,-256,961,3442,2321,1565,908,369
424,-38,-469,-187,441,-250,937,3064,2028,1355,776,297
304,-110,-421,-91,357,-262,901,2614,1674,1073,590,213
154,-218,-373,22,255,-292,853,2081,1260,743,368,87
46,-296,-349,118,195,-322,793,1554,870,455,170,-8
-43,-368,-319,208,129,-346,733,1056,540,227,26,-80
-175,-440,-259,304,33,-352,673,564,216,11,-105,-134
-277,-512,-235,394,-20,-376,601,102,-89,-192,-237,-200
-331,-578,-247,454,-44,-412,523,-245,-317,-354,-339,-248
-355,-596,-241,478,-56,-418,463,-461,-455,-432,-393,-266
-379,-572,-193,478,-92,-382,397,-563,-503,-450,-399,-260
-385,-542,-157,466,-116,-352,319,-587,-515,-450,-399,-248
-361,-524,-163,442,-98,-346,247,-593,-521,-444,-387,-230
-349,-500,-151,424,-98,-328,193,-617,-527,-444,-375,-218
-379,-500,-115,436,-134,-304,139,-647,-545,-462,-375,-218
-385,-500,-109,442,-140,-304,109,-659,-551,-474,-381,-212
-355,-476,-115,412,-122,-292,91,-647,-521,-462,-369,-194
-319,-404,-79,358,-122,-244,73,-623,-479,-420,-345,-170
-265,-332,-61,298,-104,-202,55,-617,-455,-396,-315,-152
-229,-272,-43,250,-92,-160,31,-617,-437,-372,-297,-134
-205,-206,-8,202,-104,-100,25,-605,-419,-342,-267,-104
-181,-128,46,154,-116,-34,31,-581,-407,-312,-243,-86
-151,-74,70,112,-116,-11,31,-557,-389,-294,-225,-62
-121,-38,76,76,-104,13,49,-515,-365,-270,-207,-38
-109,-20,82,64,-98,25,85,-491,-335,-252,-177,-14
-115,-20,88,64,-104,25,103,-473,-317,-246,-165,-2
-121,-26,88,70,-110,25,97,-473,-311,-252,-165,-2
-121,-38,76,76,-104,13,91,-473,-311,-246,-165,-2
-115,-32,76,70,-98,13,85,-473,-305,-246,-159,4
-115,-15,106,58,-110,43,67,-491,-305,-246,-165,4
-109,3,118,46,-116,61,55,-497,-311,-246,-171,-2
-91,15,112,28,-104,61,49,-503,-311,-240,-171,-2
-73,9,88,22,-80,49,43,-503,-311,-240,-171,4
-103,-15,88,52,-98,31,67,-491,-305,-228,-153,9
-127,-15,106,70,-122,37,85,-485,-299,-216,-135,15
-103,9,118,40,-110,61,67,-497,-311,-228,-147,9
-85,15,106,28,-98,61,61,-509,-317,-234,-159,9
-91,9,106,34,-98,55,55,-509,-317,-246,-159,9
-85,27,118,22,-104,73,43,-515,-323,-252,-159,-2
-73,33,112,10,-92,73,31,-521,-329,-246,-153,-2
-85,15,106,28,-98,61,43,-509,-317,-228,-135,9
-91,3,100,34,-98,49,43,-503,-311,-222,-135,15
-97,9,112,34,-104,61,25,-521,-323,-240,-153,9
-103,15,124,34,-116,67,19,-533,-335,-252,-165,9
-103,15,124,34,-116,67,19,-539,-341,-252,-159,9
-97,9,112,34,-104,61,25,-539,-335,-246,-159,15
-115,15,136,40,-128,73,25,-533,-335,-246,-153,9
-109,33,148,28,-128,91,13,-533,-329,-240,-153,9
-79,45,130,10,-104,85,1,-545,-335,-246,-159,9
-91,39,136,16,-116,85,-11,-557,-335,-246,-159,4
-121,45,172,28,-146,109,-17,-563,-341,-240,-159,4
-85,57,148,10,-116,103,-23,-575,-347,-246,-159,9
-55,51,112,10,-86,79,-17,-575,-347,-246,-159,15
-79,33,118,16,-98,73,-5,-569,-335,-234,-147,21
-97,33,136,22,-116,85,7,-569,-335,-234,-141,27
-79,51,136,10,-110,91,-5,-575,-347,-246,-153,15
-67,75,148,5,-110,109,-23,-593,-353,-258,-159,9
-73,81,160,5,-116,121,-23,-593,-347,-252,-147,9
-73,81,160,5,-116,121,-28,-593,-347,-252,-135,15
-73,99,178,-7,-128,139,-23,-617,-371,-258,-147,9
-73,111,190,-13,-134,151,-28,-629,-389,-264,-153,9
-79,117,202,-13,-140,157,-34,-629,-389,-258,-159,21
-91,99,196,5,-146,145,-34,-635,-383,-246,-153,33
-91,93,190,5,-140,139,-46,-653,-383,-246,-153,33
-85,105,196,-1,-140,151,-52,-659,-389,-264,-159,33
-91,111,208,-1,-152,157,-40,-653,-377,-258,-147,45
-91,123,220,-7,-158,169,-40,-653,-377,-258,-135,57
-67,141,214,-31,-140,175,-58,-671,-401,-264,-147,39
-79,153,232,-31,-158,193,-64,-677,-401,-264,-141,39
-91,141,232,-19,-164,187,-58,-671,-389,-252,-123,51
-85,147,232,-25,-164,193,-82,-689,-401,-258,-129,45
-73,159,232,-37,-158,199,-100,-719,-413,-258,-135,39
-79,183,262,-43,-176,223,-94,-731,-395,-240,-123,57
-85,201,286,-49,-188,241,-94,-731,-389,-228,-117,81
-67,201,268,-61,-170,229,-106,-743,-413,-240,-117,87
-55,207,262,-67,-164,229,-112,-755,-425,-246,-117,87
-61,225,292,-79,-182,259,-112,-755,-425,-240,-111,105
-55,255,316,-97,-188,283,-124,-761,-425,-252,-99,117
-49,261,316,-103,-188,289,-130,-773,-431,-264,-99,117
-55,255,316,-97,-188,283,-136,-779,-425,-252,-93,129
-73,261,340,-91,-212,301,-136,-791,-419,-240,-81,135
-73,303,382,-109,-230,343,-166,-803,-425,-246,-93,129
-43,315,364,-133,-206,337,-178,-827,-449,-258,-105,117
-43,309,358,-127,-206,331,-184,-833,-443,-246,-93,129
-73,297,376,-109,-230,337,-184,-839,-431,-228,-69,147
-61,321,388,-127,-230,355,-208,-857,-437,-234,-75,141
-31,375,412,-169,-224,391,-238,-887,-461,-252,-99,129
-37,393,436,-175,-242,415,-256,-911,-467,-252,-93,135
-43,375,424,-163,-236,397,-262,-917,-455,-240,-75,153
-25,387,418,-175,-224,403,-262,-929,-443,-216,-63,171
-31,435,472,-199,-248,451,-268,-941,-443,-204,-45,183
-31,459,490,-211,-260,475,-280,-959,-443,-204,-33,195
-8,453,466,-217,-242,457,-280,-965,-449,-204,-15,201
-8,453,454,-223,-230,457,-292,-965,-449,-198,-3,213
-2,453,448,-229,-224,451,-316,-977,-443,-198,3,225
10,459,442,-229,-212,451,-322,-971,-419,-180,21,249
10,489,478,-247,-230,481,-328,-977,-413,-168,26,267
10,507,490,-259,-242,499,-340,-989,-431,-168,26,273
10,513,496,-259,-242,505,-352,-995,-425,-156,26,285
4,531,520,-265,-254,529,-352,-983,-407,-132,44,297
28,543,508,-283,-242,529,-352,-983,-401,-120,50,297
70,567,490,-319,-212,529,-376,-995,-401,-114,50,291
64,579,508,-319,-224,547,-376,-995,-383,-96,68,303
34,585,544,-307,-248,565,-376,-989,-371,-78,86,315
34,585,544,-307,-248,565,-376,-983,-365,-84,86,321
58,585,520,-319,-230,553,-376,-971,-359,-78,92,321
76,591,508,-331,-218,553,-370,-953,-347,-72,98,327
82,597,508,-337,-212,553,-370,-941,-335,-66,98,327
94,591,490,-343,-200,541,-370,-923,-311,-48,104,327
112,585,472,-349,-176,529,-364,-905,-287,-30,122,333
118,603,478,-361,-182,541,-352,-887,-275,-25,122,327
118,615,490,-367,-188,553,-352,-869,-269,-25,122,321
118,591,472,-355,-176,529,-340,-851,-257,-25,128,327
112,573,460,-343,-170,517,-322,-821,-239,-13,134,327
112,573,460,-343,-170,517,-310,-791,-233,-1,140,333
118,543,424,-331,-152,481,-304,-755,-215,17,164,345
130,543,412,-337,-140,475,-292,-719,-185,35,170,345
160,561,400,-361,-116,481,-280,-683,-161,41,164,333
160,561,400,-361,-116,481,-262,-653,-143,47,158,321
148,549,400,-349,-122,475,-244,-617,-131,59,170,315
154,537,382,-343,-110,463,-226,-575,-113,77,176,315
160,531,370,-343,-104,457,-196,-533,-83,83,176,303
160,531,370,-343,-104,457,-172,-503,-71,83,170,291
178,507,328,-343,-74,421,-148,-473,-71,83,170,285
184,471,286,-325,-50,385,-124,-437,-59,77,164,279
166,459,286,-307,-56,373,-100,-395,-47,71,146,267
148,447,292,-295,-68,373,-76,-353,-35,65,134,255
148,405,250,-271,-50,331,-40,-311,-17,77,134,249
130,369,232,-247,-50,301,-23,-275,-5,77,128,237
118,351,232,-229,-50,289,-5,-257,-5,65,110,207
124,345,220,-229,-44,283,19,-245,-5,53,92,177
124,339,214,-229,-38,277,31,-239,-5,41,80,165
118,333,214,-229,-44,271,49,-233,-11,23,62,147
118,321,202,-223,-38,259,79,-221,-17,-1,44,129
112,315,202,-217,-38,259,103,-209,-35,-7,32,123
100,291,190,-199,-38,241,115,-191,-41,-7,32,129
88,231,142,-163,-20,193,139,-173,-47,-7,32,129
82,207,118,-145,-14,163,163,-155,-53,-25,26,105
82,195,106,-139,-8,151,175,-155,-65,-30,15,75
76,171,88,-121,-3,133,199,-143,-65,-36,3,57
52,141,82,-97,-8,115,205,-137,-59,-42,-9,51
22,135,106,-79,-38,121,205,-149,-71,-60,-27,39
22,135,106,-79,-38,121,211,-167,-83,-84,-45,21
16,117,94,-67,-32,109,217,-167,-89,-84,-51,15
10,105,88,-55,-32,97,223,-167,-107,-84,-51,9
22,93,64,-55,-14,79,229,-167,-119,-96,-57,4
34,93,52,-61,-3,73,247,-155,-125,-102,-63,-8
16,81,58,-49,-14,73,253,-155,-137,-108,-69,-8
-19,57,82,-13,-50,67,235,-173,-149,-120,-87,-8
-37,33,76,10,-56,55,229,-179,-161,-132,-99,-20
-19,9,34,10,-26,19,241,-185,-161,-138,-111,-26
-13,-9,10,10,-14,1,241,-191,-167,-144,-111,-32
-25,-3,28,10,-26,13,241,-209,-185,-162,-123,-38
-8,33,40,-7,-20,37,229,-227,-209,-186,-141,-56
-8,39,40,-13,-20,43,229,-233,-215,-192,-147,-56
-8,21,28,-1,-14,25,235,-227,-209,-186,-135,-50
-8,3,16,10,-14,7,235,-227,-215,-180,-135,-44
-25,-15,16,10,-20,1,229,-221,-215,-180,-141,-44
-31,-15,10,22,-26,-11,235,-215,-209,-174,-141,-44
-19,-20,-8,16,-8,-11,235,-221,-215,-186,-147,-50
-19,-20,-8,16,-8,-11,223,-227,-221,-192,-153,-62
-49,-20,22,34,-38,-5,223,-233,-221,-198,-165,-86
-67,-20,40,40,-56,1,223,-239,-215,-204,-177,-110
-61,-20,34,40,-50,1,223,-251,-221,-210,-177,-116
-43,-20,16,28,-32,-11,223,-245,-215,-204,-159,-98
-19,-20,-8,16,-8,-11,235,-233,-215,-198,-153,-80
-25,-38,-8,28,-8,-22,229,-245,-233,-216,-171,-92
-61,-68,-8,64,-26,-34,217,-251,-239,-228,-177,-98
-61,-74,-8,64,-26,-40,217,-239,-233,-216,-177,-92
-37,-56,-13,46,-8,-34,211,-239,-227,-198,-165,-86
-25,-20,-2,22,-14,-11,211,-251,-233,-198,-159,-80
-25,-15,16,10,-20,1,205,-251,-233,-198,-153,-74
-25,-26,-8,22,-14,-11,205,-245,-233,-192,-147,-74
-31,-62,-25,46,-3,-46,211,-239,-221,-192,-147,-74
-43,-50,-8,46,-20,-28,217,-245,-221,-198,-153,-80
-37,-15,22,22,-32,1,205,-251,-233,-216,-171,-86
-31,-15,10,22,-26,-11,199,-257,-233,-222,-177,-92
-37,-38,-8,34,-20,-16,205,-251,-233,-210,-177,-92
-43,-20,16,28,-32,-11,211,-251,-227,-204,-171,-86
-55,-15,34,34,-50,1,205,-251,-233,-210,-165,-86
-55,-32,16,40,-38,-11,193,-251,-233,-204,-159,-86
-55,-32,16,40,-38,-11,187,-251,-227,-192,-153,-86
-43,-15,22,28,-38,-5,181,-251,-227,-192,-147,-80
-31,-26,-2,28,-20,-11,193,-245,-227,-198,-147,-80
-37,-44,-8,40,-14,-22,211,-239,-215,-186,-135,-68
-49,-26,16,34,-38,-11,211,-239,-203,-186,-129,-56
-37,-15,22,22,-32,1,205,-245,-215,-204,-141,-62
-25,-15,4,16,-20,-11,199,-251,-233,-204,-153,-68
-37,-15,16,22,-32,-5,199,-251,-233,-192,-153,-74
-43,-3,46,16,-44,19,187,-257,-227,-186,-147,-74
-25,15,46,10,-38,31,181,-257,-227,-192,-147,-74
-25,9,40,10,-32,25,181,-245,-227,-186,-135,-68
-37,-15,28,16,-32,7,193,-239,-227,-186,-135,-62
-37,-9,34,16,-38,13,187,-245,-227,-186,-141,-68
-31,3,40,10,-38,19,187,-239,-215,-168,-135,-62
-31,-3,34,10,-32,13,181,-227,-209,-168,-135,-62
-37,3,46,10,-44,25,187,-227,-203,-168,-135,-68
-43,15,64,10,-56,37,199,-227,-209,-174,-135,-62
-25,21,52,10,-38,37,193,-233,-221,-186,-141,-62
-8,21,28,-1,-14,25,181,-239,-221,-192,-141,-56
-8,21,34,-1,-20,25,187,-239,-209,-186,-135,-56
-25,21,52,10,-38,37,175,-251,-215,-192,-141,-56
-31,15,52,10,-44,31,163,-251,-221,-192,-141,-56
-13,15,34,5,-26,25,181,-233,-209,-168,-117,-44
-8,33,34,-13,-14,37,187,-221,-197,-144,-93,-38
-13,39,58,-7,-38,49,181,-215,-191,-138,-87,-32
-19,21,46,5,-32,31,181,-209,-185,-132,-87,-32
-8,9,22,5,-14,13,187,-209,-179,-120,-81,-20
-13,9,28,10,-20,19,193,-209,-173,-120,-81,-14
-13,27,46,-1,-32,37,187,-215,-179,-132,-99,-20
4,45,34,-25,-8,43,175,-233,-197,-156,-117,-38
10,39,22,-25,-3,31,163,-233,-197,-162,-123,-44
-8,33,46,-7,-26,37,169,-221,-191,-150,-123,-44
-25,51,82,-7,-56,67,163,-227,-191,-150,-123,-50
-8,63,76,-19,-44,67,157,-227,-197,-156,-123,-50
-2,51,46,-25,-20,49,157,-221,-185,-150,-111,-38
-8,45,58,-13,-32,49,163,-215,-179,-144,-105,-32
-13,45,64,-7,-38,55,163,-215,-191,-138,-105,-38
-8,27,34,-7,-20,31,169,-215,-191,-138,-99,-44
-8,15,16,-1,-8,19,163,-215,-185,-132,-99,-38
-8,27,40,-1,-26,31,169,-215,-179,-138,-99,-44
-25,27,58,5,-44,43,175,-215,-173,-138,-105,-44
-8,33,34,-13,-14,37,169,-209,-167,-126,-93,-44
10,45,28,-25,-3,37,163,-197,-167,-126,-93,-38
-8,33,46,-7,-26,37,169,-197,-173,-138,-99,-38
-37,33,76,10,-56,55,181,-197,-173,-144,-105,-38
-13,63,82,-19,-50,73,169,-209,-173,-144,-105,-44
4,75,64,-37,-26,73,163,-221,-173,-150,-123,-56
-8,69,70,-31,-32,73,187,-203,-161,-138,-117,-62
-8,63,76,-19,-44,67,199,-191,-149,-120,-93,-44
-2,57,52,-25,-20,55,199,-191,-161,-120,-93,-44
28,75,40,-49,-3,61,205,-179,-155,-120,-93,-38
46,105,52,-73,-3,79,217,-149,-125,-102,-69,-14
22,123,94,-73,-32,109,229,-143,-107,-90,-57,4
10,129,112,-67,-44,121,235,-143,-101,-84,-57,4
16,153,130,-85,-50,145,253,-143,-101,-72,-45,9
22,153,124,-85,-44,139,277,-125,-101,-72,-33,9
16,117,94,-67,-32,109,283,-113,-101,-72,-33,9
4,111,100,-55,-44,109,271,-113,-95,-66,-39,9
16,147,124,-79,-50,139,265,-119,-101,-78,-51,4
52,165,106,-109,-20,139,271,-125,-107,-90,-63,-14
52,159,100,-103,-20,133,289,-125,-107,-84,-57,-14
22,159,130,-91,-50,145,295,-119,-101,-78,-51,-2
22,171,142,-97,-56,157,301,-107,-95,-78,-51,-2
34,171,130,-103,-44,151,301,-89,-77,-66,-45,-2
46,183,130,-115,-38,157,295,-89,-53,-48,-27,4
46,189,136,-115,-38,163,301,-89,-53,-42,-15,9
40,189,142,-115,-44,169,313,-77,-47,-36,-3,9
46,183,130,-115,-38,157,313,-71,-47,-30,3,15
58,195,130,-127,-32,163,301,-77,-59,-36,-9,9
70,207,130,-139,-26,169,313,-83,-65,-54,-27,9
76,213,130,-145,-20,175,319,-71,-53,-54,-27,9
76,207,124,-139,-20,169,307,-59,-47,-36,-15,9
76,225,142,-151,-26,187,283,-71,-59,-42,-21,9
76,237,160,-157,-38,205,265,-77,-65,-36,-15,15
76,225,142,-151,-26,187,259,-59,-41,-25,9,33
76,219,136,-145,-26,181,241,-59,-23,-19,26,39
76,237,160,-157,-38,205,211,-71,-29,-19,26,33
76,237,160,-157,-38,205,181,-83,-47,-25,9,27
82,219,130,-151,-20,175,175,-107,-77,-54,-15,15
76,225,142,-151,-26,187,163,-119,-83,-60,-15,15
58,231,172,-145,-50,205,163,-119,-77,-42,-3,33
58,201,136,-127,-32,169,157,-131,-89,-48,-9,33
88,141,46,-115,15,97,139,-149,-107,-72,-33,9
100,99,-8,-97,45,49,115,-167,-119,-90,-51,-14
76,87,4,-79,27,49,97,-185,-137,-102,-69,-38
28,87,52,-55,-8,73,103,-185,-143,-108,-81,-50
10,69,52,-37,-14,61,115,-179,-149,-108,-81,-56
22,51,22,-37,-3,37,103,-185,-155,-114,-81,-62
10,51,34,-31,-8,43,91,-203,-161,-126,-81,-62
-8,45,58,-13,-32,49,85,-203,-167,-126,-81,-50
-8,27,34,-7,-20,31,85,-203,-173,-132,-87,-50
-2,3,-2,-1,-3,1,85,-221,-191,-144,-99,-62
4,3,-8,-1,-3,1,91,-221,-197,-150,-105,-68
4,9,-2,-7,-3,7,97,-209,-197,-150,-105,-68
-8,3,4,5,-3,7,91,-209,-197,-156,-117,-80
-13,-15,4,10,-8,-5,85,-221,-197,-174,-135,-92
-31,-26,-2,28,-20,-11,85,-227,-203,-180,-141,-104
-31,-44,-8,34,-8,-28,73,-251,-221,-204,-165,-116
-25,-50,-19,34,-3,-34,73,-257,-239,-222,-183,-128
-31,-44,-8,34,-8,-28,79,-251,-233,-222,-177,-122
-55,-38,10,46,-38,-11,73,-251,-227,-216,-171,-128
-79,-56,16,64,-50,-16,85,-263,-245,-222,-177,-146
-85,-68,10,76,-50,-22,91,-269,-263,-228,-183,-152
-73,-62,4,64,-44,-22,85,-269,-257,-228,-189,-158
-67,-50,10,58,-44,-16,73,-269,-251,-234,-195,-170
-67,-62,-2,64,-38,-28,73,-269,-257,-234,-195,-170
-55,-80,-19,64,-14,-52,79,-263,-251,-234,-183,-152
-43,-62,-13,52,-14,-40,73,-263,-245,-222,-165,-128
-43,-32,4,34,-26,-11,61,-263,-245,-222,-171,-122
-49,-38,4,40,-32,-11,55,-269,-233,-216,-165,-116
-67,-38,22,52,-50,-11,55,-269,-233,-210,-165,-122
-73,-26,40,46,-62,1,61,-269,-233,-210,-165,-122
-73,-44,22,58,-50,-11,67,-263,-245,-210,-165,-122
-61,-56,-2,58,-32,-22,67,-263,-257,-222,-171,-134
-67,-56,4,58,-38,-22,73,-257,-245,-222,-177,-146
-79,-44,28,58,-56,-11,73,-251,-233,-216,-171,-152
-67,-44,16,52,-44,-11,67,-257,-233,-216,-171,-146
-49,-50,-8,46,-26,-22,67,-257,-227,-216,-177,-146
-49,-44,-2,46,-26,-16,85,-245,-215,-210,-171,-146
-49,-44,-2,46,-26,-16,97,-233,-215,-204,-165,-140
-49,-44,-2,46,-26,-16,91,-221,-221,-192,-159,-128
-61,-38,16,46,-44,-11,109,-197,-185,-162,-141,-104
-73,-38,28,52,-56,-11,133,-161,-149,-126,-111,-86
-73,-38,28,52,-56,-11,133,-155,-131,-114,-99,-86
-67,-32,28,46,-50,-11,139,-149,-131,-114,-99,-92
-43,-15,34,22,-38,7,145,-131,-125,-114,-99,-92
-31,-3,34,10,-32,13,157,-101,-101,-108,-87,-92
-37,-15,16,22,-32,-5,187,-65,-59,-90,-75,-92
-43,-26,10,34,-32,-11,217,-41,-47,-84,-69,-98
-37,-38,-8,34,-20,-16,223,-29,-53,-84,-81,-98
-25,-86,-55,52,3,-70,247,-6,-35,-78,-93,-104
-25,-140,-109,82,33,-124,283,30,-17,-66,-99,-128
-31,-182,-145,106,45,-166,319,78,6,-48,-99,-146
-31,-242,-205,136,75,-226,349,138,24,-36,-93,-164
-13,-308,-289,160,129,-298,385,180,30,-42,-111,-206
-8,-368,-367,184,177,-364,421,228,24,-54,-123,-242
-8,-434,-433,214,213,-430,463,282,60,-60,-129,-254
-8,-512,-499,256,237,-508,505,348,90,-54,-141,-266
-8,-578,-577,286,279,-574,541,396,102,-72,-171,-308
52,-650,-709,292,375,-676,559,414,78,-114,-225,-374
76,-776,-859,346,465,-814,571,396,24,-162,-291,-446
-55,-1046,-985,550,459,-1018,499,42,-257,-378,-465,-578
1054,-3,-1051,-523,1053,-520,1663,1056,750,689,614,513
142,-890,-1033,370,585,-964,733,744,204,-30,-219,-440
280,-734,-1015,220,645,-874,943,1314,618,245,3,-290
136,-956,-1093,406,609,-1018,865,942,306,5,-189,-446
136,-1022,-1165,442,645,-1090,829,870,228,-54,-243,-494
220,-950,-1171,358,693,-1054,901,1122,420,71,-147,-428
202,-974,-1177,382,687,-1072,919,1146,444,83,-141,-428
214,-1028,-1243,406,729,-1138,925,1170,462,95,-147,-440
286,-998,-1291,352,783,-1144,961,1326,570,197,-75,-398
328,-926,-1255,292,789,-1090,991,1446,654,281,-9,-356
352,-866,-1225,250,783,-1042,1003,1554,738,371,44,-308
382,-806,-1195,208,783,-994,1021,1716,876,491,158,-224
388,-698,-1087,148,729,-892,1039,1830,990,593,266,-152
412,-572,-985,76,699,-778,1003,1896,1062,659,320,-104
478,-524,-1009,16,741,-766,949,2004,1182,761,410,-32
538,-494,-1033,-19,783,-760,895,2153,1344,905,512,33
538,-416,-961,-55,741,-688,853,2279,1476,1007,590,87
538,-338,-883,-97,711,-610,829,2387,1596,1091,644,123
568,-266,-841,-145,705,-550,805,2500,1710,1193,704,165
604,-212,-817,-193,711,-508,727,2590,1818,1283,770,219
610,-182,-793,-211,699,-490,625,2638,1890,1367,842,261
598,-170,-769,-211,681,-472,571,2656,1914,1409,872,279
592,-146,-739,-223,663,-442,523,2644,1920,1421,878,273
592,-92,-691,-241,639,-388,469,2614,1938,1439,908,297
580,-3,-577,-289,579,-280,439,2584,1986,1505,974,357
580,105,-475,-343,525,-178,409,2572,2046,1553,1016,399
586,165,-421,-373,501,-124,379,2566,2105,1583,1028,417
574,201,-373,-385,477,-82,355,2512,2135,1607,1040,435
532,225,-301,-379,417,-28,349,2410,2123,1613,1040,441
484,237,-247,-361,363,-5,361,2285,2081,1595,1034,441
436,225,-205,-331,315,7,355,2141,2010,1553,1016,435
334,201,-133,-265,237,31,343,1872,1818,1397,914,381
178,141,-31,-157,105,49,337,1482,1470,1103,716,279
28,57,22,-43,-3,43,307,1062,1080,767,482,165
-79,-32,40,52,-62,-5,229,612,648,401,224,9
-169,-152,10,160,-92,-64,139,174,234,65,-15,-140
-193,-236,-37,214,-74,-136,67,-125,-23,-126,-153,-218
-223,-278,-55,250,-80,-172,19,-293,-173,-222,-219,-248
-271,-326,-49,298,-110,-190,-5,-389,-269,-276,-255,-260
-253,-344,-85,298,-86,-220,-23,-425,-323,-312,-273,-260
-205,-308,-103,250,-50,-208,-52,-437,-359,-324,-273,-254
-193,-254,-55,220,-68,-154,-64,-419,-365,-306,-243,-230
-199,-194,-2,196,-104,-94,-58,-377,-335,-282,-207,-188
-169,-128,34,148,-104,-40,-28,-353,-299,-270,-189,-164
-121,-68,46,94,-86,-11,-23,-341,-287,-264,-189,-158
-97,-38,52,64,-80,1,-5,-317,-287,-264,-189,-164
-91,-26,58,58,-80,7,31,-305,-281,-264,-189,-164
-91,-15,70,52,-86,19,49,-299,-281,-264,-195,-164
-103,-15,82,58,-98,25,55,-299,-269,-252,-183,-158
-115,-15,100,58,-110,37,61,-299,-263,-246,-177,-158
-91,3,100,34,-98,49,55,-305,-257,-234,-165,-152
-73,21,100,16,-86,61,37,-311,-257,-228,-159,-146
-91,9,106,34,-98,55,31,-311,-257,-222,-147,-134
-115,3,124,46,-122,61,25,-311,-257,-228,-147,-128
-97,33,136,22,-116,85,13,-323,-275,-234,-153,-128
-85,45,136,10,-110,91,13,-323,-281,-246,-141,-116
-79,21,106,22,-92,61,25,-317,-275,-246,-141,-104
-73,3,82,28,-80,43,31,-317,-275,-246,-147,-110
-61,3,70,22,-68,37,31,-317,-275,-246,-153,-116
-61,15,82,16,-74,49,31,-323,-275,-246,-153,-116
-55,27,88,10,-74,55,25,-317,-275,-240,-153,-122
-67,27,100,10,-86,61,25,-317,-263,-234,-147,-122
-85,15,106,28,-98,61,13,-317,-263,-228,-141,-116
-97,21,124,28,-110,73,1,-329,-269,-228,-141,-116
-103,51,160,16,-134,103,-5,-341,-275,-234,-147,-122
-85,69,160,10,-122,115,-11,-347,-287,-252,-159,-140
-73,63,142,10,-110,103,-23,-359,-305,-264,-177,-146
-91,45,142,16,-116,91,-17,-347,-299,-258,-165,-140
-109,21,136,34,-122,79,-5,-335,-275,-234,-147,-122
-85,21,112,22,-98,67,-11,-341,-275,-234,-147,-122
-67,33,106,10,-86,67,-23,-353,-287,-252,-159,-128
-73,45,124,10,-98,85,-28,-353,-293,-258,-159,-128
-73,51,130,10,-104,91,-23,-353,-287,-252,-153,-122
-61,51,118,10,-92,85,-23,-359,-293,-246,-153,-116
-61,51,118,10,-92,85,-23,-365,-299,-246,-153,-122
-61,51,118,10,-92,85,-28,-365,-305,-252,-153,-128
-79,45,130,10,-104,85,-28,-359,-293,-246,-147,-122
-91,39,136,16,-116,85,-23,-353,-293,-246,-141,-122
-85,63,154,10,-122,109,-28,-359,-299,-252,-153,-134
-79,81,166,5,-122,121,-34,-365,-299,-252,-153,-128
-73,63,142,10,-110,103,-40,-359,-293,-240,-147,-116
-73,57,136,10,-104,97,-40,-365,-287,-246,-153,-110
-85,57,148,10,-116,103,-40,-365,-293,-258,-159,-116
-91,63,160,10,-128,109,-34,-365,-293,-258,-159,-110
-85,87,178,5,-134,133,-46,-365,-299,-258,-153,-110
-73,105,184,-7,-128,145,-52,-371,-299,-258,-141,-104
-79,99,184,-1,-134,139,-58,-371,-305,-252,-141,-104
-97,99,202,5,-152,151,-58,-371,-317,-258,-147,-116
-97,105,208,5,-152,157,-52,-371,-323,-258,-153,-122
-79,105,190,-7,-134,145,-58,-371,-311,-258,-147,-110
-67,105,178,-13,-122,139,-64,-383,-311,-258,-141,-104
-79,93,178,-1,-128,133,-58,-383,-305,-246,-135,-104
-97,93,196,10,-146,145,-52,-377,-299,-240,-135,-104
-91,117,214,-7,-152,163,-58,-383,-305,-252,-141,-104
-73,129,208,-19,-140,169,-70,-389,-317,-258,-141,-104
-79,117,202,-13,-140,157,-70,-389,-311,-258,-135,-98
-103,111,220,5,-164,163,-70,-383,-311,-258,-129,-92
-97,117,220,-1,-158,169,-76,-383,-317,-258,-141,-98
-79,123,208,-13,-146,163,-82,-395,-317,-258,-147,-104
-91,129,226,-13,-158,175,-82,-395,-317,-258,-141,-98
-103,135,238,-7,-176,187,-76,-395,-317,-264,-141,-92
-97,147,244,-19,-176,199,-82,-401,-329,-264,-141,-92
-79,165,244,-37,-164,205,-88,-401,-323,-252,-129,-86
-67,171,238,-43,-158,205,-88,-407,-323,-240,-111,-68
-73,171,244,-43,-164,211,-94,-407,-317,-240,-105,-56
-73,201,274,-55,-176,235,-106,-413,-305,-234,-99,-50
-79,243,328,-79,-206,283,-124,-425,-299,-228,-99,-44
-67,249,322,-85,-200,283,-130,-443,-317,-240,-105,-50
-55,225,286,-79,-176,253,-130,-443,-329,-252,-117,-62
-61,225,292,-79,-182,259,-118,-431,-317,-246,-111,-50
-73,237,316,-79,-200,277,-112,-431,-311,-234,-105,-38
-55,243,304,-91,-182,271,-118,-437,-329,-240,-105,-38
-61,249,316,-91,-194,283,-118,-443,-329,-234,-99,-32
-67,249,322,-85,-200,283,-130,-437,-311,-228,-87,-26
-79,279,364,-97,-224,319,-136,-443,-317,-234,-87,-20
-85,309,400,-109,-242,355,-142,-443,-317,-228,-75,-2
-73,321,400,-121,-242,361,-148,-449,-311,-222,-63,9
-55,357,418,-145,-242,385,-160,-461,-317,-228,-63,9
-49,381,436,-163,-242,409,-172,-461,-305,-222,-57,9
-55,369,430,-151,-242,397,-172,-461,-299,-198,-45,21
-49,339,394,-139,-224,367,-166,-449,-281,-180,-33,27
-37,363,406,-157,-224,385,-166,-443,-269,-168,-27,33
-37,405,448,-181,-242,427,-166,-431,-257,-162,-21,51
-37,429,472,-193,-254,451,-178,-425,-251,-162,-21,51
-31,447,478,-205,-254,463,-178,-425,-239,-144,-9,63
-25,453,478,-211,-254,469,-172,-413,-221,-120,26,81
-31,471,508,-217,-272,487,-160,-401,-197,-96,38,99
-13,495,514,-235,-266,505,-172,-401,-197,-96,44,111
22,507,478,-265,-230,493,-184,-395,-191,-84,56,123
28,519,484,-271,-230,505,-178,-377,-179,-78,74,141
4,537,526,-271,-254,535,-178,-365,-167,-72,80,153
4,531,520,-265,-254,529,-178,-353,-149,-60,92,159
16,543,520,-277,-248,535,-166,-329,-125,-42,110,165
16,567,544,-289,-260,559,-148,-305,-113,-25,116,165
22,579,550,-301,-260,565,-154,-287,-95,-13,116,159
22,579,550,-301,-260,565,-154,-275,-83,-7,128,159
28,597,562,-313,-260,583,-148,-257,-59,11,146,171
40,585,538,-313,-242,565,-142,-233,-23,35,170,195
40,573,526,-307,-242,553,-136,-221,-11,41,188,213
40,603,556,-319,-254,583,-142,-215,-17,41,182,213
40,627,580,-331,-266,607,-142,-197,1,53,176,213
58,639,574,-349,-254,607,-130,-167,12,77,188,213
76,639,556,-355,-242,601,-118,-137,30,89,194,213
82,627,538,-355,-230,583,-106,-107,42,101,206,219
94,597,496,-343,-200,547,-94,-83,54,113,218,219
94,597,496,-343,-200,547,-70,-59,78,137,242,231
88,609,514,-349,-212,565,-40,-23,102,155,260,243
88,603,508,-343,-212,559,-28,-12,120,155,260,237
106,573,466,-337,-176,517,-28,-12,120,149,248,231
112,555,442,-331,-164,499,-23,0,132,161,248,237
130,567,436,-349,-152,499,-23,18,144,161,254,237
154,573,418,-361,-128,493,-17,24,150,161,242,219
148,555,406,-349,-128,481,-11,42,156,161,236,213
118,537,418,-325,-146,475,7,60,150,161,236,207
118,525,406,-319,-140,469,19,72,144,149,224,195
118,501,382,-307,-128,445,31,78,144,143,218,183
112,465,346,-283,-116,409,55,96,162,155,218,171
112,447,328,-277,-104,391,61,102,150,149,212,153
106,441,328,-271,-110,385,67,102,132,131,200,135
94,405,304,-247,-104,355,91,114,132,131,194,135
100,363,256,-229,-74,313,103,120,132,125,182,123
106,339,232,-223,-56,283,109,114,108,95,152,105
82,315,232,-199,-68,271,121,102,84,77,122,81
52,291,232,-175,-86,265,139,102,78,65,110,57
52,285,232,-169,-86,259,145,84,54,47,92,33
64,291,226,-181,-74,259,139,66,30,17,68,9
52,249,196,-151,-68,229,145,66,24,11,68,9
40,195,148,-115,-50,175,157,78,24,17,74,9
34,183,142,-109,-50,163,151,66,6,-1,56,9
22,189,160,-103,-62,175,151,54,1,-19,32,-2
10,171,154,-91,-68,163,157,48,-5,-25,26,-8
22,129,100,-73,-32,115,145,36,-23,-36,15,-26
16,105,82,-61,-26,97,127,6,-59,-72,-21,-56
-8,105,112,-43,-56,109,127,-12,-77,-90,-39,-74
-19,93,118,-31,-68,103,133,-12,-83,-90,-39,-68
-19,69,94,-19,-56,79,139,-12,-89,-96,-39,-68
-13,51,70,-13,-44,61,139,-17,-101,-108,-45,-86
-13,33,52,-1,-32,43,139,-29,-113,-120,-63,-104
-19,27,52,5,-38,37,133,-35,-119,-120,-63,-110
-31,27,64,10,-50,43,127,-35,-119,-126,-69,-110
-25,21,52,10,-38,37,121,-41,-131,-138,-75,-116
-13,15,34,5,-26,25,115,-53,-143,-156,-87,-122
-25,9,40,10,-32,25,109,-65,-155,-156,-93,-128
-43,-3,46,16,-44,19,109,-65,-161,-162,-93,-140
-49,-9,46,22,-50,19,109,-83,-173,-168,-99,-140
-49,-15,34,28,-44,7,103,-101,-191,-192,-111,-152
-43,-15,22,28,-38,-5,97,-119,-203,-210,-123,-170
-37,-15,22,22,-32,1,91,-125,-209,-210,-123,-170
-55,-15,40,28,-50,7,103,-107,-191,-192,-105,-146
-73,-44,22,58,-50,-11,103,-95,-185,-186,-105,-140
-73,-74,-8,70,-38,-34,79,-107,-203,-210,-129,-164
-55,-74,-13,64,-20,-46,61,-125,-227,-228,-153,-182
-49,-44,-2,46,-26,-16,55,-125,-233,-228,-147,-182
-55,-26,22,40,-44,-11,67,-113,-221,-216,-135,-176
-43,-38,-2,40,-26,-16,79,-113,-209,-198,-129,-170
-43,-56,-8,46,-14,-34,85,-113,-209,-198,-129,-170
-55,-50,-2,52,-32,-22,73,-125,-221,-216,-141,-182
-61,-56,-2,58,-32,-22,79,-119,-221,-216,-141,-182
-61,-74,-8,64,-26,-40,85,-113,-209,-204,-129,-158
-49,-74,-19,58,-14,-46,85,-113,-209,-210,-129,-158
-49,-56,-8,52,-20,-28,79,-119,-209,-216,-135,-164
-67,-56,4,58,-38,-22,79,-113,-215,-216,-135,-164
-85,-56,22,70,-56,-11,73,-119,-215,-216,-135,-170
-73,-56,10,64,-44,-16,67,-119,-227,-216,-141,-188
-49,-68,-13,58,-14,-40,55,-131,-233,-228,-141,-188
-61,-62,-8,58,-32,-28,55,-143,-233,-234,-147,-194
-85,-68,10,76,-50,-22,55,-143,-233,-234,-141,-188
-85,-68,10,76,-50,-22,61,-143,-227,-228,-135,-176
-67,-38,22,52,-50,-11,49,-149,-233,-228,-141,-182
-49,-32,10,40,-32,-11,43,-149,-233,-234,-147,-188
-49,-68,-13,58,-14,-40,49,-155,-233,-228,-141,-176
-73,-92,-13,82,-26,-52,61,-143,-215,-216,-129,-164
-79,-80,-8,76,-38,-40,67,-125,-203,-210,-129,-164
-73,-38,28,52,-56,-11,61,-125,-209,-222,-141,-176
-73,-15,52,40,-68,13,49,-137,-227,-228,-147,-182
-67,-44,16,52,-44,-11,43,-137,-221,-222,-135,-176
-67,-56,4,58,-38,-22,43,-131,-209,-210,-123,-158
-67,-38,22,52,-50,-11,49,-143,-215,-216,-129,-164
-61,-44,10,52,-38,-11,37,-155,-227,-222,-141,-182
-49,-50,-8,46,-26,-22,31,-161,-227,-228,-135,-182
-61,-44,10,52,-38,-11,37,-143,-215,-210,-123,-164
-79,-44,28,58,-56,-11,43,-143,-209,-204,-117,-152
-67,-50,10,58,-44,-16,31,-155,-227,-216,-123,-158
-67,-44,16,52,-44,-11,31,-149,-221,-210,-123,-152
-79,-50,22,64,-56,-11,43,-131,-197,-198,-111,-146
-79,-86,-8,82,-38,-46,55,-119,-185,-186,-99,-140
-79,-86,-8,82,-38,-46,49,-125,-197,-192,-105,-140
-73,-15,52,40,-68,13,25,-149,-227,-204,-123,-158
-67,21,94,16,-80,55,25,-149,-227,-204,-123,-164
-73,-9,70,34,-74,31,37,-143,-209,-192,-105,-152
-79,-32,40,52,-62,-5,31,-143,-203,-186,-99,-140
-79,-32,40,52,-62,-5,25,-155,-209,-192,-105,-140
-79,-15,70,40,-74,25,25,-149,-203,-186,-105,-140
-73,3,82,28,-80,43,31,-131,-191,-180,-99,-134
-55,-3,58,22,-56,25,37,-119,-185,-174,-87,-128
-61,3,70,22,-68,37,43,-119,-179,-168,-81,-122
-67,3,76,22,-74,37,37,-119,-179,-174,-87,-128
-49,-3,52,16,-50,25,43,-119,-179,-174,-93,-134
-43,9,58,10,-50,31,49,-113,-179,-168,-93,-134
-49,21,76,10,-62,49,55,-107,-167,-162,-87,-128
-31,27,64,10,-50,43,67,-95,-149,-144,-75,-116
-13,51,70,-13,-44,61,79,-83,-137,-132,-57,-98
-8,87,94,-37,-50,91,79,-77,-137,-132,-51,-98
-25,87,118,-25,-74,103,91,-59,-137,-120,-39,-86
-43,63,112,-1,-80,85,115,-35,-107,-96,-15,-62
-31,87,124,-19,-80,103,127,-23,-89,-84,-9,-44
-8,117,124,-49,-62,121,133,-17,-89,-84,-15,-50
-8,123,130,-55,-68,127,133,-17,-89,-84,-15,-56
-19,123,148,-43,-86,133,139,-17,-89,-84,-15,-62
-19,123,148,-43,-86,133,157,-12,-83,-78,-15,-56
-8,117,124,-49,-62,121,163,-12,-83,-78,-9,-56
-8,105,118,-43,-62,109,175,-12,-77,-72,-3,-50
-19,99,124,-31,-74,109,181,-6,-71,-66,3,-44
-13,105,124,-37,-68,115,175,-6,-71,-72,-9,-50
-13,135,154,-55,-86,145,175,6,-59,-66,-3,-50
-13,159,178,-67,-98,169,187,18,-41,-54,9,-44
-8,165,166,-79,-80,169,199,24,-41,-48,21,-38
-8,171,172,-79,-86,175,211,30,-35,-42,26,-38
-8,171,184,-73,-98,175,217,36,-29,-36,26,-38
10,171,154,-91,-68,163,211,42,-23,-30,26,-32
34,183,142,-109,-50,163,205,54,-17,-25,26,-20
40,219,172,-127,-62,199,193,60,-11,-25,32,-14
46,237,190,-145,-68,217,169,54,-11,-25,26,-14
52,219,160,-133,-50,193,169,54,-11,-25,26,-14
28,183,148,-103,-56,169,175,66,6,-7,44,-2
16,189,166,-103,-68,181,175,72,6,5,56,9
10,213,196,-109,-86,205,157,60,6,-1,62,9
10,225,208,-115,-92,217,139,54,6,-1,62,9
22,225,196,-121,-80,211,109,48,6,-7,56,9
52,237,184,-145,-62,217,73,36,-5,-19,44,9
58,231,172,-145,-50,205,61,30,-11,-25,44,9
52,213,154,-133,-44,187,55,24,-17,-25,32,4
58,183,118,-121,-26,151,19,6,-35,-36,26,-14
46,159,106,-103,-26,133,7,6,-35,-42,26,-20
34,135,94,-85,-26,115,19,12,-35,-30,26,-20
34,111,70,-73,-14,91,7,-12,-59,-54,15,-38
16,93,70,-55,-20,85,-11,-41,-95,-84,-3,-62
-2,81,76,-37,-32,79,-11,-41,-101,-90,-9,-68
-8,57,64,-19,-32,61,1,-29,-95,-84,-9,-62
-8,39,46,-13,-26,43,-5,-41,-101,-96,-15,-68
-19,33,58,-1,-38,43,-17,-53,-119,-114,-33,-86
-31,27,64,10,-50,43,-23,-59,-131,-126,-51,-104
-19,3,28,10,-26,13,-17,-59,-131,-126,-63,-110
-13,-15,-8,10,-8,-11,-11,-47,-119,-120,-51,-110
-37,-26,4,28,-26,-11,-5,-47,-113,-120,-51,-110
-61,-26,28,40,-50,-5,-17,-65,-131,-126,-57,-128
-73,-32,34,52,-56,-5,-23,-89,-161,-138,-69,-152
-85,-44,34,64,-62,-11,-17,-89,-173,-156,-87,-158
-97,-68,22,82,-62,-16,-17,-95,-179,-168,-93,-164
-85,-74,4,76,-50,-28,-23,-107,-185,-180,-105,-170
-79,-80,-8,76,-38,-40,-23,-113,-191,-180,-105,-170
-91,-86,-2,88,-50,-40,-23,-113,-191,-180,-105,-164
-115,-98,10,106,-68,-40,-23,-113,-191,-180,-111,-164
-121,-86,28,100,-80,-22,-28,-119,-197,-180,-123,-176
-103,-92,4,94,-56,-40,-40,-131,-203,-186,-129,-182
-103,-110,-8,106,-50,-58,-34,-125,-203,-180,-123,-176
-115,-116,-8,112,-56,-58,-28,-119,-197,-180,-117,-170
-103,-116,-8,106,-44,-64,-34,-119,-203,-186,-123,-176
-103,-116,-8,106,-44,-64,-34,-131,-209,-192,-129,-188
-121,-110,4,112,-68,-46,-28,-125,-203,-192,-129,-182
-127,-110,10,118,-74,-46,-28,-125,-203,-198,-123,-182
-109,-110,-8,106,-56,-52,-40,-125,-209,-198,-123,-188
-103,-116,-8,106,-44,-64,-40,-125,-209,-198,-123,-182
-127,-122,-2,124,-68,-58,-28,-119,-197,-186,-117,-176
-145,-122,16,130,-86,-46,-23,-113,-191,-180,-105,-170
-127,-122,-2,124,-68,-58,-28,-113,-191,-186,-111,-176
-97,-116,-13,106,-38,-64,-40,-119,-203,-192,-123,-176
-115,-116,-8,112,-56,-58,-46,-119,-197,-192,-123,-176
-139,-98,34,118,-92,-28,-40,-113,-191,-180,-111,-176
-133,-92,34,112,-86,-22,-28,-101,-173,-168,-99,-158
-115,-116,-8,112,-56,-58,-11,-77,-149,-150,-81,-140
-115,-128,-8,118,-50,-70,7,-65,-143,-144,-75,-146
-121,-98,16,106,-74,-34,1,-65,-149,-150,-87,-152
-121,-86,28,100,-80,-22,1,-59,-143,-144,-93,-152
-121,-98,16,106,-74,-34,13,-35,-125,-132,-75,-146
-121,-92,22,106,-74,-28,31,-17,-113,-120,-69,-152
-109,-92,10,100,-62,-34,37,-6,-95,-108,-69,-152
-109,-98,4,100,-62,-40,61,24,-65,-90,-57,-146
-91,-86,-2,88,-50,-40,79,60,-41,-72,-45,-146
-85,-98,-8,88,-38,-52,97,90,-17,-60,-33,-152
-85,-128,-37,106,-20,-82,109,120,6,-48,-27,-146
-85,-152,-61,118,-8,-106,139,144,12,-30,-21,-140
-85,-182,-91,130,-3,-136,169,174,18,-36,-33,-158
-85,-224,-133,154,15,-178,199,192,18,-48,-57,-194
-79,-260,-181,172,39,-226,229,228,36,-48,-69,-224
-79,-326,-247,202,75,-286,277,282,54,-48,-75,-248
-73,-410,-331,244,123,-370,301,330,60,-54,-99,-284
-55,-500,-439,274,183,-472,337,378,72,-66,-129,-326
-37,-566,-523,298,237,-544,385,444,96,-60,-135,-350
-31,-650,-613,340,279,-634,445,504,114,-60,-141,-380
-49,-752,-703,400,315,-730,463,516,90,-96,-183,-422
-169,-998,-829,580,321,-916,379,168,-197,-330,-369,-566
970,27,-943,-499,957,-454,1507,1128,786,701,686,513
40,-866,-913,406,477,-886,559,750,192,-60,-201,-464
190,-722,-913,256,543,-814,757,1302,582,215,21,-320
46,-968,-1015,454,525,-988,679,918,264,-25,-189,-494
10,-1082,-1099,526,549,-1090,637,810,150,-126,-285,-602
100,-1058,-1165,478,627,-1108,709,1062,312,-19,-213,-560
118,-1130,-1249,496,681,-1192,733,1104,336,-1,-195,-548
100,-1172,-1273,526,687,-1222,739,1122,336,-1,-195,-554
112,-1148,-1261,508,687,-1204,769,1260,432,65,-153,-524
142,-1118,-1261,484,699,-1192,775,1356,498,119,-111,-494
184,-1070,-1255,442,717,-1162,751,1434,558,179,-63,-470
226,-1004,-1231,388,729,-1120,775,1560,672,281,15,-410
250,-938,-1195,334,723,-1060,805,1668,774,377,86,-350
310,-848,-1165,262,729,-1000,787,1740,864,461,164,-296
364,-770,-1141,202,747,-958,739,1848,978,569,254,-230
406,-698,-1105,142,747,-898,703,1968,1098,683,338,-164
454,-608,-1063,70,753,-832,643,2111,1242,809,440,-92
478,-524,-1003,16,735,-760,607,2267,1404,947,548,-8
478,-470,-949,5,711,-706,583,2405,1548,1055,644,57
472,-410,-883,-25,675,-646,517,2452,1614,1133,698,99
502,-338,-847,-79,675,-592,421,2422,1632,1169,728,129
532,-284,-823,-121,675,-550,349,2375,1620,1181,746,147
514,-290,-811,-109,663,-550,325,2345,1620,1193,758,147
466,-302,-769,-73,615,-532,319,2321,1632,1205,764,147
442,-260,-709,-85,567,-484,295,2297,1656,1247,794,165
430,-170,-601,-127,507,-382,271,2285,1698,1295,836,207
418,-92,-511,-157,465,-298,247,2273,1758,1355,896,267
418,-38,-463,-187,435,-250,217,2255,1806,1397,938,309
406,15,-385,-211,393,-178,187,2195,1818,1409,950,327
370,45,-319,-211,345,-130,181,2117,1806,1397,956,345
310,57,-247,-187,279,-88,199,2022,1776,1385,944,357
238,111,-127,-175,183,-11,217,1914,1716,1325,908,351
148,147,-8,-145,69,73,205,1692,1578,1193,824,309
52,81,22,-67,9,55,181,1380,1314,971,668,237
-43,-15,28,22,-38,1,145,1002,960,671,458,111
-169,-134,28,148,-104,-46,73,564,534,317,206,-38
-259,-248,10,250,-140,-112,1,186,186,35,3,-164
-307,-314,-8,310,-152,-160,-40,-17,1,-90,-93,-212
-319,-368,-43,340,-140,-208,-76,-131,-125,-174,-141,-230
-307,-380,-67,340,-122,-226,-106,-203,-221,-234,-177,-248
-295,-326,-25,310,-134,-178,-136,-215,-251,-258,-195,-254
-265,-254,4,256,-140,-124,-148,-203,-251,-258,-189,-242
-235,-230,-2,232,-122,-112,-136,-185,-233,-228,-159,-212
-205,-200,-2,202,-104,-94,-112,-155,-191,-192,-135,-170
-199,-146,46,172,-128,-46,-94,-143,-179,-174,-117,-158
-187,-92,88,136,-140,-11,-70,-143,-185,-186,-123,-158
-175,-92,76,130,-128,-11,-40,-131,-191,-192,-129,-158
-175,-92,76,130,-128,-11,-28,-125,-191,-192,-135,-164
-175,-80,88,124,-134,-5,-28,-125,-197,-198,-135,-158
-163,-74,82,118,-128,-5,-23,-119,-191,-192,-129,-152
-157,-86,64,118,-116,-11,-28,-119,-191,-192,-123,-140
-163,-92,64,124,-116,-11,-52,-137,-203,-192,-123,-140
-163,-80,76,118,-122,-11,-64,-143,-203,-198,-123,-134
-163,-38,118,100,-146,31,-70,-149,-203,-204,-123,-128
-145,-15,130,76,-140,55,-58,-155,-203,-198,-123,-128
-133,-44,82,88,-110,13,-52,-161,-209,-192,-123,-128
-151,-86,58,118,-110,-11,-46,-161,-221,-198,-129,-140
-169,-74,88,118,-134,1,-52,-167,-233,-216,-141,-152
-175,-74,94,124,-140,1,-46,-167,-227,-222,-141,-152
-169,-80,82,124,-128,-5,-46,-155,-221,-216,-141,-146
-169,-62,100,112,-140,13,-52,-155,-221,-216,-141,-140
-157,-44,106,100,-134,25,-64,-161,-221,-216,-135,-140
-145,-44,94,94,-122,19,-70,-155,-209,-204,-135,-134
-145,-44,94,94,-122,19,-64,-155,-197,-192,-123,-116
-157,-32,118,94,-140,37,-64,-155,-203,-186,-111,-116
-157,-32,118,94,-140,37,-76,-161,-215,-192,-117,-122
-157,-50,100,100,-134,19,-58,-149,-203,-186,-111,-110
-145,-80,58,112,-104,-11,-46,-143,-197,-180,-105,-104
-139,-74,58,106,-104,-11,-58,-149,-209,-192,-111,-110
-157,-44,106,100,-134,25,-58,-149,-215,-198,-117,-116
-169,-20,142,94,-158,55,-70,-155,-209,-192,-117,-116
-169,-20,142,94,-158,55,-82,-167,-215,-192,-117,-116
-163,-20,136,88,-152,49,-88,-173,-215,-192,-117,-116
-151,-20,124,82,-140,43,-94,-179,-215,-192,-117,-116
-133,-20,106,76,-122,37,-100,-179,-215,-192,-123,-116
-139,-20,112,76,-128,37,-94,-173,-209,-186,-117,-110
-139,-20,112,76,-128,37,-88,-173,-203,-186,-111,-104
-139,-15,124,70,-134,49,-88,-179,-209,-192,-117,-98
-151,-20,124,82,-140,43,-82,-173,-209,-186,-117,-98
-157,-38,112,94,-140,31,-82,-161,-209,-180,-105,-92
-151,-32,112,88,-134,31,-88,-161,-209,-180,-105,-86
-169,-20,142,94,-158,55,-88,-161,-203,-186,-105,-80
-175,-20,148,94,-164,55,-88,-161,-203,-186,-111,-80
-151,-15,130,82,-146,49,-100,-173,-209,-192,-117,-80
-145,-9,142,70,-146,67,-106,-179,-215,-192,-111,-86
-157,-9,154,76,-158,73,-112,-179,-221,-198,-117,-86
-157,-15,136,82,-152,55,-106,-173,-215,-192,-111,-80
-145,-15,130,76,-140,55,-106,-167,-209,-186,-105,-74
-139,15,160,52,-152,85,-112,-167,-209,-180,-99,-62
-139,27,172,46,-158,97,-118,-179,-209,-186,-105,-62
-145,21,172,52,-158,97,-124,-185,-209,-174,-99,-62
-163,27,196,58,-182,109,-118,-185,-203,-174,-93,-56
-169,39,214,58,-194,127,-124,-185,-209,-174,-99,-62
-169,21,196,64,-182,109,-130,-191,-215,-186,-105,-62
-163,9,178,70,-170,91,-136,-191,-221,-186,-105,-62
-151,33,190,52,-170,109,-142,-197,-221,-186,-99,-62
-145,57,208,34,-176,133,-148,-197,-221,-186,-105,-62
-151,51,208,40,-182,127,-142,-191,-215,-174,-99,-50
-163,51,220,46,-194,133,-136,-185,-209,-168,-93,-38
-151,57,214,40,-182,133,-154,-197,-215,-174,-93,-44
-139,57,202,34,-170,127,-160,-197,-215,-186,-99,-44
-151,63,220,34,-188,139,-148,-185,-203,-174,-93,-32
-145,87,232,22,-194,163,-136,-179,-191,-156,-75,-14
-127,99,232,10,-182,163,-142,-185,-191,-150,-75,-8
-121,99,226,10,-176,163,-160,-197,-197,-156,-69,-8
-139,99,238,10,-194,169,-160,-191,-203,-156,-63,4
-145,105,250,10,-200,181,-154,-197,-203,-156,-63,4
-139,129,268,10,-206,199,-160,-203,-209,-156,-63,9
-151,147,298,10,-230,223,-160,-203,-203,-150,-51,9
-157,153,310,10,-236,229,-160,-203,-203,-150,-51,9
-139,171,310,-7,-230,235,-160,-209,-203,-150,-57,15
-127,171,298,-13,-218,229,-166,-203,-197,-144,-51,27
-127,177,304,-19,-218,235,-172,-191,-185,-132,-45,39
-139,195,334,-19,-242,259,-178,-191,-179,-126,-39,57
-133,201,334,-25,-236,265,-190,-197,-179,-126,-33,69
-109,213,322,-43,-218,265,-196,-203,-179,-120,-27,63
-103,237,346,-61,-230,289,-202,-209,-179,-120,-27,63
-103,261,370,-73,-242,313,-196,-203,-161,-108,-9,81
-103,267,376,-79,-242,319,-184,-185,-137,-84,21,111
-109,279,394,-79,-248,337,-184,-179,-125,-72,26,123
-97,303,406,-97,-248,355,-190,-179,-125,-72,26,123
-79,315,400,-115,-242,355,-184,-167,-113,-66,26,135
-79,333,418,-121,-248,373,-190,-149,-101,-48,38,153
-85,351,442,-127,-260,397,-196,-155,-95,-42,38,159
-67,369,442,-145,-254,403,-196,-149,-95,-36,38,159
-61,381,448,-157,-254,415,-190,-131,-77,-25,56,177
-79,381,466,-145,-272,421,-190,-113,-53,-7,80,201
-79,393,478,-151,-278,433,-196,-113,-47,-1,98,207
-67,417,484,-169,-278,451,-190,-107,-29,11,116,219
-67,453,520,-187,-296,481,-184,-89,-11,29,128,237
-55,471,532,-205,-296,499,-202,-83,-5,35,134,243
-43,489,538,-223,-290,511,-202,-71,6,47,140,249
-31,489,526,-229,-278,505,-202,-53,12,65,158,255
-25,495,526,-229,-278,511,-202,-29,30,71,158,267
-19,513,538,-241,-278,523,-196,-12,36,83,170,267
-13,513,532,-241,-272,523,-190,-6,54,107,194,279
-8,501,508,-241,-254,505,-178,12,84,131,218,297
-2,507,502,-253,-248,505,-166,30,102,137,218,303
10,519,502,-265,-242,511,-160,42,120,143,230,303
-2,543,538,-271,-266,541,-154,60,138,155,242,315
-8,561,562,-277,-278,565,-148,84,150,161,242,315
4,561,550,-283,-266,559,-136,102,162,167,242,315
22,531,502,-277,-242,517,-130,126,180,185,254,327
22,519,490,-271,-236,505,-118,156,204,209,266,333
34,549,508,-289,-236,529,-106,180,216,215,272,333
58,567,502,-313,-224,535,-100,198,222,227,278,327
64,567,496,-313,-218,535,-100,204,222,221,272,321
64,549,478,-307,-206,517,-88,210,234,233,284,327
58,525,466,-289,-200,493,-70,228,246,239,296,333
40,501,460,-271,-206,481,-52,234,258,239,302,345
40,483,442,-259,-200,469,-52,240,246,227,284,339
64,477,412,-271,-170,451,-52,240,246,221,272,327
70,483,412,-277,-170,451,-40,252,246,227,272,315
64,471,406,-265,-170,445,-28,264,246,221,266,309
64,453,382,-253,-158,421,-23,264,246,215,260,297
64,411,340,-235,-134,379,-23,270,234,215,254,279
46,381,328,-217,-140,355,-11,276,240,221,248,267
40,369,322,-205,-140,349,7,276,240,215,236,255
40,369,322,-205,-140,349,13,270,234,203,224,249
40,345,298,-193,-128,325,13,264,216,185,212,243
34,309,268,-175,-116,289,19,246,192,161,194,225
34,267,232,-151,-92,247,31,240,180,143,182,219
28,249,220,-139,-92,235,37,228,162,125,158,207
4,249,238,-127,-116,247,37,222,138,101,128,183
-8,243,244,-121,-122,247,37,204,108,83,104,159
-2,225,220,-109,-104,223,37,198,102,83,104,147
-8,177,190,-79,-98,181,43,198,96,83,104,135
-25,141,172,-49,-98,157,37,180,84,59,80,111
-8,129,136,-55,-68,133,19,144,48,23,50,81
-8,99,112,-37,-62,103,13,126,30,11,32,69
-43,57,106,-1,-74,79,25,120,18,-1,32,75
-37,57,100,-1,-68,79,31,108,6,-13,26,63
-8,69,82,-25,-44,73,19,90,-5,-25,15,51
-25,51,82,-7,-56,67,1,78,-23,-42,-3,33
-61,33,100,10,-80,67,-17,60,-47,-60,-21,15
-73,27,106,16,-92,67,-17,48,-59,-66,-33,9
-79,9,94,28,-86,49,-17,48,-59,-60,-33,9
-67,-15,58,34,-62,19,-11,48,-59,-60,-27,9
-49,-15,34,28,-44,7,-17,36,-71,-72,-33,9
-73,-15,58,40,-68,19,-17,24,-71,-72,-33,9
-103,-15,82,58,-98,25,-11,6,-77,-78,-45,9
-85,-26,52,52,-74,7,-17,-12,-101,-96,-57,4
-73,-44,22,58,-50,-11,-23,-12,-107,-108,-69,-8
-97,-68,22,82,-62,-16,-23,-12,-113,-114,-75,-8
-109,-68,34,88,-74,-11,-23,-17,-131,-126,-87,-20
-97,-62,28,76,-68,-11,-34,-23,-137,-132,-99,-32
-97,-74,16,82,-62,-22,-34,-23,-137,-132,-99,-32
-109,-92,10,100,-62,-34,-28,-17,-131,-126,-93,-26
-103,-98,-2,100,-56,-46,-23,-23,-131,-126,-87,-26
-103,-86,10,94,-62,-34,-34,-41,-137,-138,-93,-38
-121,-92,22,106,-74,-28,-46,-53,-149,-150,-105,-38
-139,-110,22,124,-86,-40,-40,-47,-149,-150,-105,-32
-133,-128,-2,130,-68,-58,-34,-47,-149,-150,-105,-32
-133,-140,-8,136,-62,-70,-46,-53,-155,-156,-105,-38
-145,-122,16,130,-86,-46,-52,-59,-161,-156,-105,-50
-139,-92,40,112,-92,-22,-52,-65,-167,-168,-105,-56
-127,-104,16,112,-74,-40,-52,-71,-167,-162,-111,-56
-121,-140,-13,130,-50,-76,-46,-65,-161,-156,-111,-44
-133,-134,-8,130,-68,-64,-46,-65,-161,-156,-111,-38
-139,-110,22,124,-86,-40,-58,-71,-167,-162,-117,-50
-115,-104,4,106,-62,-46,-64,-77,-173,-168,-117,-62
-91,-116,-19,100,-32,-70,-58,-71,-167,-162,-117,-56
-97,-104,-8,100,-44,-52,-64,-71,-173,-162,-117,-50
-127,-92,28,106,-80,-28,-70,-89,-179,-168,-117,-62
-145,-98,40,118,-98,-22,-76,-101,-179,-168,-117,-68
-115,-116,-8,112,-56,-58,-76,-101,-179,-168,-111,-68
-97,-128,-25,112,-32,-76,-76,-101,-179,-168,-111,-74
-133,-116,10,124,-74,-46,-70,-95,-173,-162,-117,-74
-145,-116,22,130,-86,-40,-70,-101,-173,-156,-117,-74
-115,-116,-8,112,-56,-58,-76,-101,-173,-162,-123,-74
-109,-110,-8,106,-56,-52,-82,-107,-179,-162,-123,-62
-121,-92,22,106,-74,-28,-82,-107,-179,-162,-123,-68
-127,-98,22,112,-80,-34,-76,-107,-185,-162,-123,-68
-115,-98,10,106,-68,-40,-76,-113,-185,-168,-123,-62
-115,-86,22,100,-74,-28,-82,-113,-185,-168,-117,-62
-121,-74,40,94,-86,-11,-82,-113,-179,-156,-111,-62
-121,-80,34,100,-80,-16,-76,-107,-179,-156,-111,-56
-115,-86,22,100,-74,-28,-70,-101,-173,-150,-105,-50
-115,-80,28,94,-74,-22,-58,-89,-149,-132,-93,-32
-109,-50,52,76,-86,-5,-46,-89,-149,-126,-87,-20
-97,-15,76,52,-92,25,-40,-89,-149,-132,-81,-26
-91,-15,82,46,-86,31,-28,-71,-137,-126,-75,-26
-97,-3,100,40,-98,49,-23,-59,-125,-126,-69,-20
-115,15,136,40,-128,73,-23,-59,-125,-120,-63,-20
-109,21,136,34,-122,79,-23,-53,-119,-108,-57,-8
-103,9,118,40,-110,61,-17,-53,-119,-102,-57,-8
-115,-15,106,58,-110,43,1,-47,-113,-96,-57,-8
-115,-15,106,58,-110,43,19,-35,-101,-90,-51,4
-91,39,136,16,-116,85,13,-29,-95,-84,-39,9
-91,57,154,10,-122,103,25,-29,-95,-84,-39,9
-103,27,136,28,-122,79,31,-23,-89,-84,-39,9
-97,9,112,34,-104,61,37,-12,-71,-72,-27,9
-85,9,100,28,-92,55,49,0,-59,-60,-15,15
-67,15,88,16,-80,49,55,6,-65,-60,-15,15
-67,39,112,10,-92,73,67,12,-65,-60,-15,9
-79,51,136,10,-110,91,73,30,-53,-42,-9,21
-49,63,118,-1,-86,91,67,30,-47,-36,-3,21
-8,117,124,-49,-62,121,43,24,-47,-36,-9,21
-8,153,166,-67,-86,157,37,30,-35,-30,-3,33
-19,147,172,-55,-98,157,37,48,-17,-25,15,51
-8,129,136,-55,-68,133,25,42,-11,-25,26,57
-8,123,124,-55,-62,127,19,42,-11,-25,26,57
-19,135,160,-49,-92,145,25,54,-5,-19,26,63
-37,135,178,-43,-110,157,25,66,6,5,32,75
-37,117,160,-31,-98,139,13,66,6,11,44,87
-13,123,142,-49,-80,133,-23,48,-5,-1,32,75
-8,129,136,-55,-68,133,-70,24,-17,-7,26,63
-8,141,148,-61,-74,145,-82,30,-5,5,38,87
-2,171,166,-85,-80,169,-82,36,6,17,44,99
10,165,148,-85,-62,157,-100,24,-11,-1,32,93
4,123,112,-61,-50,121,-106,12,-23,-19,26,69
10,81,64,-43,-20,73,-100,18,-17,-19,26,69
-2,63,58,-31,-26,61,-106,6,-29,-25,21,51
-8,57,70,-19,-38,61,-130,-12,-71,-42,-9,15
-19,57,82,-13,-50,67,-136,-29,-83,-54,-27,9
-25,51,82,-7,-56,67,-112,-12,-65,-36,-3,15
-37,27,70,10,-56,49,-106,-12,-53,-30,3,33
-25,-9,22,10,-26,7,-130,-23,-71,-48,-15,21
-25,-15,4,16,-20,-11,-148,-41,-83,-60,-27,9
-61,-20,34,40,-50,1,-142,-35,-77,-60,-27,9
-79,-26,46,52,-68,1,-136,-35,-83,-66,-33,9
-79,-44,28,58,-56,-11,-136,-41,-83,-72,-39,4
-85,-44,34,64,-62,-11,-130,-41,-89,-72,-39,-2
-79,-38,34,58,-62,-11,-130,-47,-101,-78,-51,-8
-79,-38,34,58,-62,-11,-130,-59,-113,-90,-63,-20
-97,-74,16,82,-62,-22,-124,-65,-113,-90,-63,-26
-115,-116,-8,112,-56,-58,-124,-77,-125,-96,-75,-38
-121,-122,-8,118,-62,-58,-142,-101,-143,-120,-93,-50
-127,-128,-8,124,-62,-64,-142,-107,-149,-126,-99,-62
-133,-122,4,124,-74,-52,-142,-107,-149,-132,-99,-62
-127,-104,16,112,-74,-40,-154,-119,-161,-144,-105,-68
-133,-122,4,124,-74,-52,-166,-119,-161,-138,-105,-68
-145,-140,-2,142,-74,-64,-160,-119,-161,-132,-105,-68
-145,-122,16,130,-86,-46,-166,-119,-173,-132,-111,-74
-145,-128,10,136,-80,-52,-160,-119,-167,-132,-105,-68
-145,-152,-8,148,-68,-76,-154,-107,-155,-126,-99,-62
-151,-158,-8,154,-74,-82,-148,-113,-161,-138,-105,-68
-151,-134,10,142,-86,-58,-154,-119,-167,-156,-117,-74
-145,-128,10,136,-80,-52,-160,-125,-173,-156,-117,-74
-151,-134,10,142,-86,-58,-166,-125,-167,-156,-111,-74
-145,-122,16,130,-86,-46,-166,-125,-173,-156,-117,-74
-145,-104,34,124,-92,-28,-178,-137,-173,-156,-129,-80
-157,-110,40,130,-104,-28,-172,-137,-167,-156,-123,-80
-151,-128,16,136,-86,-52,-160,-131,-155,-138,-111,-68
-133,-116,10,124,-74,-46,-154,-125,-155,-132,-105,-56
-139,-116,16,124,-80,-46,-154,-125,-155,-126,-111,-62
-163,-134,22,148,-98,-52,-160,-125,-155,-126,-105,-62
-175,-134,34,154,-110,-46,-154,-107,-143,-120,-99,-56
-163,-116,40,136,-104,-34,-142,-95,-131,-114,-93,-56
-151,-122,22,136,-92,-46,-130,-83,-119,-114,-87,-56
-145,-146,-8,142,-74,-70,-118,-59,-95,-90,-75,-38
-139,-140,-8,136,-68,-70,-118,-47,-89,-84,-69,-38
-145,-110,28,124,-92,-34,-112,-35,-89,-84,-69,-44
-151,-104,40,124,-98,-28,-100,-23,-77,-72,-63,-38
-133,-116,10,124,-74,-46,-88,-12,-59,-54,-51,-32
-109,-122,-8,112,-50,-64,-76,6,-47,-42,-45,-38
-115,-122,-8,118,-56,-64,-52,36,-23,-30,-45,-50
-139,-140,-8,136,-68,-70,-28,60,1,-25,-33,-56
-127,-158,-25,142,-50,-94,-23,84,6,-19,-27,-56
-115,-176,-55,142,-26,-118,7,120,24,-19,-27,-68
-127,-224,-91,172,-14,-160,37,156,36,-19,-39,-92
-121,-272,-151,196,3,-214,67,192,48,-19,-45,-116
-97,-308,-211,202,45,-256,97,234,66,-19,-57,-140
-85,-380,-289,232,93,-334,127,282,66,-25,-75,-176
-91,-476,-379,280,135,-430,163,330,66,-36,-111,-230
-91,-566,-475,328,183,-520,199,378,78,-48,-141,-278
-79,-644,-559,358,237,-604,235,420,78,-72,-183,-332
-121,-788,-667,454,261,-730,253,312,-17,-174,-273,-416
910,135,-769,-517,837,-310,1393,1032,798,731,686,597
-211,-1052,-841,628,309,-952,235,48,-251,-372,-459,-572
130,-746,-877,298,495,-808,457,1056,456,137,-75,-308
136,-794,-937,322,531,-862,499,1116,486,149,-63,-314
-19,-1028,-1003,520,483,-1018,415,654,120,-120,-291,-500
-2,-1076,-1081,532,537,-1078,439,768,162,-96,-291,-530
46,-1136,-1189,538,615,-1162,493,954,258,-30,-249,-518
28,-1208,-1237,580,633,-1222,493,888,204,-72,-291,-560
52,-1184,-1237,556,645,-1210,493,936,234,-60,-291,-572
88,-1166,-1255,532,669,-1210,529,1062,318,-7,-249,-536
94,-1172,-1267,532,681,-1222,535,1122,360,35,-213,-512
130,-1142,-1273,496,699,-1210,535,1206,438,95,-171,-482
190,-1088,-1279,448,729,-1186,547,1320,528,179,-99,-440
232,-998,-1231,382,729,-1114,529,1392,618,257,-27,-386
256,-908,-1171,316,711,-1036,499,1470,708,359,50,-314
292,-830,-1129,262,711,-982,463,1566,804,467,146,-242
346,-764,-1117,208,729,-940,397,1650,894,557,230,-194
406,-716,-1123,148,759,-916,343,1734,996,665,308,-122
466,-638,-1105,82,777,-868,313,1866,1134,785,416,-44
490,-542,-1039,16,759,-790,283,1956,1236,887,500,9
490,-488,-979,5,729,-736,223,1968,1278,941,536,45
478,-446,-925,-7,699,-682,181,1932,1272,953,554,69
478,-410,-895,-31,687,-652,127,1866,1266,971,578,99
484,-404,-895,-37,687,-646,85,1812,1260,983,596,123
442,-410,-853,-7,645,-628,97,1794,1260,995,596,105
382,-404,-787,10,579,-592,103,1782,1260,1001,602,105
358,-362,-727,10,537,-538,85,1758,1278,1037,650,147
346,-260,-613,-37,477,-436,43,1728,1314,1109,710,225
340,-146,-493,-91,411,-316,13,1710,1362,1169,764,279
340,-62,-409,-133,369,-238,-5,1692,1416,1205,806,321
322,-15,-343,-151,327,-178,-5,1638,1428,1211,824,351
274,9,-259,-145,267,-118,25,1584,1434,1199,824,363
214,63,-145,-139,177,-34,55,1542,1434,1193,818,369
148,93,-49,-121,99,19,43,1452,1392,1133,770,345
52,45,-8,-49,27,19,-11,1230,1218,971,662,285
-61,-44,10,52,-38,-11,-46,900,930,713,488,195
-181,-146,28,160,-110,-52,-76,504,564,401,266,57
-277,-224,52,250,-170,-82,-100,162,240,125,50,-50
-337,-266,64,298,-206,-100,-130,-35,42,-13,-39,-110
-319,-296,16,304,-176,-136,-178,-155,-53,-72,-93,-134
-289,-302,-8,292,-140,-160,-208,-221,-131,-132,-129,-158
-295,-296,-8,292,-152,-148,-214,-221,-149,-150,-129,-146
-259,-266,-8,262,-128,-136,-208,-191,-137,-138,-111,-122
-205,-212,-8,208,-98,-106,-208,-173,-131,-126,-87,-104
-181,-158,16,166,-104,-64,-190,-161,-113,-108,-63,-80
-181,-128,46,154,-116,-34,-184,-155,-119,-102,-45,-56
-163,-86,70,124,-122,-11,-172,-155,-131,-96,-45,-50
-151,-50,94,100,-128,13,-160,-167,-155,-108,-51,-44
-157,-50,100,100,-134,19,-154,-173,-167,-126,-69,-56
-169,-62,100,112,-140,13,-148,-173,-167,-138,-87,-68
-187,-62,118,124,-158,19,-136,-161,-155,-132,-75,-62
-175,-50,118,112,-152,25,-136,-155,-143,-114,-57,-50
-145,-32,106,88,-128,31,-154,-161,-143,-120,-57,-44
-157,-32,118,94,-140,37,-166,-167,-137,-114,-51,-44
-169,-56,106,112,-140,19,-172,-167,-131,-108,-45,-38
-151,-62,82,106,-122,1,-178,-173,-143,-120,-45,-44
-157,-50,100,100,-134,19,-178,-179,-155,-126,-57,-44
-163,-38,118,100,-146,31,-172,-179,-155,-126,-63,-50
-139,-32,100,82,-122,25,-172,-185,-161,-138,-69,-56
-121,-38,76,76,-104,13,-172,-197,-173,-144,-75,-62
-145,-44,94,94,-122,19,-166,-197,-179,-150,-75,-56
-175,-44,124,106,-152,31,-160,-185,-173,-144,-69,-50
-169,-50,112,106,-146,25,-160,-185,-155,-132,-63,-44
-157,-50,100,100,-134,19,-166,-191,-149,-126,-63,-44
-157,-26,124,88,-146,43,-178,-197,-161,-132,-69,-50
-157,-15,142,82,-152,61,-178,-197,-161,-132,-69,-44
-157,-26,124,88,-146,43,-178,-191,-149,-120,-57,-32
-163,-26,130,94,-152,43,-178,-191,-155,-126,-63,-38
-157,-20,130,88,-146,49,-190,-197,-167,-132,-69,-44
-157,-32,118,94,-140,37,-190,-191,-161,-126,-63,-38
-163,-44,112,100,-140,25,-178,-179,-155,-114,-51,-26
-163,-26,130,94,-152,43,-178,-179,-155,-120,-51,-26
-157,-20,130,88,-146,49,-190,-191,-167,-126,-57,-38
-151,-15,130,82,-146,49,-196,-203,-161,-132,-63,-38
-145,-9,142,70,-146,67,-202,-203,-161,-132,-63,-38
-151,-3,154,70,-152,73,-208,-203,-161,-132,-57,-32
-157,-15,136,82,-152,55,-208,-197,-155,-120,-51,-26
-139,-32,100,82,-122,25,-214,-197,-155,-114,-51,-26
-127,-15,106,70,-122,37,-220,-203,-167,-120,-57,-32
-139,-3,142,64,-140,67,-226,-203,-167,-126,-57,-32
-157,9,172,64,-164,91,-226,-209,-167,-126,-57,-32
-151,-9,148,70,-152,67,-220,-203,-161,-120,-51,-26
-151,-15,130,82,-146,49,-214,-197,-161,-108,-39,-8
-157,-15,136,82,-152,55,-214,-191,-149,-102,-27,4
-145,-3,148,64,-146,73,-226,-197,-149,-108,-33,-2
-145,9,160,58,-152,85,-244,-215,-161,-120,-39,-14
-157,9,172,64,-164,91,-250,-227,-173,-132,-39,-20
-163,3,172,70,-170,85,-244,-221,-161,-126,-33,-14
-157,3,166,70,-164,85,-244,-215,-161,-120,-39,-8
-151,33,190,52,-170,109,-250,-221,-173,-132,-51,-20
-139,57,202,34,-170,127,-256,-227,-173,-132,-57,-26
-145,33,184,46,-164,109,-244,-215,-161,-120,-45,-8
-157,-3,160,70,-158,79,-232,-197,-143,-108,-27,9
-157,27,190,58,-176,109,-232,-209,-143,-102,-27,9
-139,63,208,28,-176,133,-244,-221,-149,-108,-27,9
-127,57,190,28,-158,121,-244,-221,-149,-108,-33,9
-133,45,184,34,-158,115,-244,-215,-143,-108,-27,15
-151,63,220,34,-188,139,-250,-215,-137,-90,-9,21
-151,87,238,22,-200,163,-256,-209,-143,-90,-3,27
-139,87,232,16,-188,157,-262,-209,-143,-90,-9,27
-139,81,226,22,-182,151,-262,-209,-149,-90,-9,33
-133,87,226,16,-182,157,-262,-209,-149,-90,-3,33
-133,81,220,16,-176,151,-262,-215,-149,-90,-9,33
-133,81,220,16,-176,151,-262,-215,-143,-90,-3,33
-139,105,244,10,-194,175,-268,-215,-149,-90,3,33
-139,129,268,10,-206,199,-268,-221,-149,-96,-3,45
-139,129,268,10,-206,199,-268,-221,-137,-90,3,57
-133,135,268,5,-206,205,-274,-221,-131,-90,-3,63
-127,147,274,-1,-206,211,-280,-227,-137,-90,-3,63
-139,159,298,-1,-224,229,-274,-227,-131,-78,9,75
-151,165,316,-1,-236,235,-268,-215,-113,-54,26,99
-133,171,304,-13,-224,235,-268,-203,-101,-42,32,123
-121,183,304,-25,-218,241,-274,-197,-101,-36,38,123
-121,195,316,-31,-224,253,-280,-197,-101,-36,38,123
-115,207,322,-37,-224,259,-286,-197,-95,-36,44,123
-103,231,340,-61,-224,283,-286,-197,-95,-36,38,123
-97,255,358,-73,-230,307,-292,-203,-89,-30,38,135
-103,267,376,-79,-242,319,-298,-203,-83,-25,50,147
-103,279,388,-85,-242,331,-298,-191,-77,-25,62,159
-97,297,400,-97,-248,349,-298,-185,-71,-25,74,165
-91,315,412,-109,-248,361,-298,-179,-53,-13,92,171
-85,333,424,-121,-254,379,-304,-167,-41,11,110,189
-91,333,430,-115,-260,379,-304,-143,-23,29,128,207
-97,339,442,-115,-266,391,-304,-137,-17,35,128,213
-85,363,454,-133,-266,409,-298,-125,-5,41,134,219
-67,387,460,-157,-260,421,-298,-113,6,53,146,231
-43,411,460,-181,-248,433,-298,-101,6,59,158,243
-43,429,478,-187,-260,451,-304,-101,18,65,164,255
-49,447,496,-193,-272,475,-304,-89,36,77,176,261
-49,447,496,-193,-272,475,-310,-77,48,89,182,267
-43,447,490,-199,-266,469,-310,-65,66,107,200,279
-49,453,502,-199,-278,475,-298,-41,90,131,224,297
-31,483,520,-223,-278,499,-298,-23,102,143,230,303
-8,513,520,-247,-260,517,-298,-12,120,167,248,315
-8,513,514,-253,-254,517,-292,30,150,191,266,327
-8,525,526,-259,-260,529,-286,48,162,197,266,327
4,555,544,-277,-266,553,-280,60,180,209,284,339
16,561,538,-289,-254,553,-274,84,198,221,308,363
22,555,526,-289,-248,541,-262,96,216,233,314,369
16,549,526,-283,-248,541,-256,108,228,245,320,375
16,555,532,-283,-254,547,-244,138,246,257,326,387
28,567,532,-295,-248,553,-238,156,264,263,326,387
46,561,508,-301,-230,535,-250,174,270,275,326,375
46,555,502,-301,-230,529,-244,192,276,287,332,375
46,555,502,-301,-230,529,-244,216,294,293,332,381
46,555,502,-301,-230,529,-232,228,312,305,350,393
46,555,502,-301,-230,529,-220,246,324,311,356,393
70,549,478,-307,-200,511,-214,246,324,317,356,381
88,543,454,-313,-182,499,-208,252,324,317,350,375
76,531,454,-301,-188,493,-196,258,336,317,350,375
70,513,442,-289,-182,475,-190,264,336,317,344,369
82,495,412,-289,-164,457,-184,270,336,323,344,363
76,483,406,-277,-164,451,-172,288,336,323,344,357
82,483,400,-283,-158,445,-166,282,330,305,326,345
94,471,376,-283,-140,427,-160,276,318,299,314,333
88,447,352,-265,-128,403,-148,282,318,299,308,333
64,417,346,-235,-140,385,-142,270,306,287,284,309
64,405,334,-229,-134,373,-136,258,288,263,266,279
64,393,322,-229,-128,361,-130,252,276,251,266,267
46,351,298,-199,-122,325,-118,246,270,251,260,267
34,315,274,-175,-116,295,-118,234,252,233,242,255
34,309,268,-175,-116,289,-124,222,234,215,218,243
40,303,256,-175,-104,283,-124,204,210,191,194,219
40,291,244,-169,-98,271,-124,192,186,173,170,201
34,249,214,-145,-86,229,-112,180,186,167,158,189
40,201,154,-121,-50,181,-100,168,174,155,146,189
22,177,148,-97,-56,163,-112,144,144,131,128,165
-2,171,166,-85,-80,169,-124,120,114,107,104,147
-8,153,160,-67,-80,157,-130,102,102,89,92,129
-8,135,136,-61,-68,139,-136,78,78,65,68,111
-8,123,136,-49,-74,127,-148,48,54,47,44,93
-43,99,148,-19,-98,121,-136,48,48,41,44,99
-73,87,166,-1,-122,127,-142,42,36,29,38,93
-61,75,142,-1,-104,109,-154,12,12,17,26,81
-43,33,82,10,-62,55,-154,0,6,-1,15,63
-61,-3,64,22,-62,31,-154,-6,-5,-19,3,57
-67,-3,70,28,-68,31,-166,-17,-23,-25,-15,39
-67,9,82,22,-74,43,-178,-35,-41,-36,-27,21
-55,9,70,16,-62,37,-178,-41,-47,-42,-33,15
-49,3,58,16,-56,31,-184,-53,-53,-48,-33,15
-79,-9,76,34,-80,31,-184,-65,-65,-54,-39,15
-103,-9,100,46,-104,43,-196,-71,-77,-72,-57,9
-91,-15,82,46,-86,31,-208,-83,-83,-84,-69,4
-85,-20,58,52,-74,13,-214,-95,-95,-90,-75,4
